TITLE	
DATA TYPE	ULTRAVIOLET SPECTRUM
ORIGIN	JASCO
OWNER	
DATE	18/06/04
TIME	12:16:01
SPECTROMETER/DATA SYSTEM	
LOCALE	1031
RESOLUTION	
DELTAX	-0.025
XUNITS	NANOMETERS
YUNITS	TRANSMITTANCE
FIRSTX	  650.0000
LASTX	  500.0000
NPOINTS	    6001
FIRSTY	     1.53925
MAXY	     1.55310
MINY	     1.27020
XYDATA
650.0000	1.53925
649.9750	1.53785
649.9500	1.53704
649.9250	1.53951
649.9000	1.53936
649.8750	1.53786
649.8500	1.53826
649.8250	1.54135
649.8000	1.54331
649.7750	1.54124
649.7500	1.54217
649.7250	1.543
649.7000	1.54074
649.6750	1.53815
649.6500	1.53815
649.6250	1.53837
649.6000	1.53794
649.5750	1.54078
649.5500	1.53859
649.5250	1.54067
649.5000	1.54299
649.4750	1.54326
649.4500	1.54216
649.4250	1.54166
649.4000	1.54277
649.3750	1.54317
649.3500	1.5421
649.3250	1.54221
649.3000	1.54278
649.2750	1.54282
649.2500	1.54414
649.2250	1.54238
649.2000	1.54536
649.1750	1.54491
649.1500	1.54405
649.1250	1.54536
649.1000	1.54302
649.0750	1.54117
649.0500	1.54065
649.0250	1.54249
649.0000	1.54498
648.9750	1.54495
648.9500	1.54345
648.9250	1.54642
648.9000	1.54158
648.8750	1.54246
648.8500	1.54098
648.8250	1.53771
648.8000	1.53471
648.7750	1.53833
648.7500	1.54157
648.7250	1.53839
648.7000	1.54167
648.6750	1.54054
648.6500	1.5446
648.6250	1.5436
648.6000	1.53933
648.5750	1.54152
648.5500	1.54189
648.5250	1.54539
648.5000	1.54751
648.4750	1.5449
648.4500	1.54472
648.4250	1.54628
648.4000	1.54574
648.3750	1.54148
648.3500	1.53961
648.3250	1.53859
648.3000	1.53778
648.2750	1.5388
648.2500	1.53856
648.2250	1.53974
648.2000	1.539
648.1750	1.5396
648.1500	1.53993
648.1250	1.54183
648.1000	1.54331
648.0750	1.54571
648.0500	1.54885
648.0250	1.54699
648.0000	1.54549
647.9750	1.54621
647.9500	1.54769
647.9250	1.55049
647.9000	1.5509
647.8750	1.54592
647.8500	1.54641
647.8250	1.54531
647.8000	1.54458
647.7750	1.53609
647.7500	1.53332
647.7250	1.53576
647.7000	1.53549
647.6750	1.53377
647.6500	1.53417
647.6250	1.5372
647.6000	1.53708
647.5750	1.5373
647.5500	1.53906
647.5250	1.53576
647.5000	1.53711
647.4750	1.53529
647.4500	1.53699
647.4250	1.53648
647.4000	1.53471
647.3750	1.53537
647.3500	1.53424
647.3250	1.52943
647.3000	1.5333
647.2750	1.52936
647.2500	1.53185
647.2250	1.53538
647.2000	1.5372
647.1750	1.53797
647.1500	1.54045
647.1250	1.53746
647.1000	1.53417
647.0750	1.53275
647.0500	1.529
647.0250	1.52816
647.0000	1.5317
646.9750	1.53069
646.9500	1.53406
646.9250	1.53554
646.9000	1.53721
646.8750	1.53832
646.8500	1.53821
646.8250	1.53835
646.8000	1.53644
646.7750	1.54014
646.7500	1.53805
646.7250	1.53926
646.7000	1.53876
646.6750	1.53704
646.6500	1.53832
646.6250	1.53805
646.6000	1.53375
646.5750	1.53258
646.5500	1.5338
646.5250	1.53283
646.5000	1.53283
646.4750	1.53338
646.4500	1.53313
646.4250	1.53453
646.4000	1.53673
646.3750	1.53571
646.3500	1.53614
646.3250	1.53748
646.3000	1.53758
646.2750	1.5371
646.2500	1.53464
646.2250	1.53138
646.2000	1.53234
646.1750	1.53239
646.1500	1.53108
646.1250	1.5312
646.1000	1.53522
646.0750	1.53901
646.0500	1.53693
646.0250	1.54015
646.0000	1.54337
645.9750	1.54478
645.9500	1.54396
645.9250	1.53967
645.9000	1.53878
645.8750	1.53591
645.8500	1.53317
645.8250	1.53507
645.8000	1.53462
645.7750	1.53442
645.7500	1.53531
645.7250	1.54058
645.7000	1.54008
645.6750	1.53765
645.6500	1.53665
645.6250	1.5408
645.6000	1.54139
645.5750	1.54068
645.5500	1.5396
645.5250	1.53742
645.5000	1.53916
645.4750	1.53889
645.4500	1.53861
645.4250	1.53724
645.4000	1.53874
645.3750	1.53991
645.3500	1.54275
645.3250	1.53873
645.3000	1.53969
645.2750	1.54233
645.2500	1.54042
645.2250	1.53873
645.2000	1.53864
645.1750	1.53794
645.1500	1.53894
645.1250	1.53855
645.1000	1.53751
645.0750	1.53656
645.0500	1.53902
645.0250	1.54104
645.0000	1.54244
644.9750	1.54438
644.9500	1.54118
644.9250	1.54172
644.9000	1.54034
644.8750	1.54319
644.8500	1.5393
644.8250	1.53708
644.8000	1.53724
644.7750	1.53802
644.7500	1.53964
644.7250	1.53733
644.7000	1.53312
644.6750	1.53417
644.6500	1.539
644.6250	1.53798
644.6000	1.53531
644.5750	1.53587
644.5500	1.53974
644.5250	1.53956
644.5000	1.53881
644.4750	1.53783
644.4500	1.53781
644.4250	1.53666
644.4000	1.5357
644.3750	1.53549
644.3500	1.5323
644.3250	1.53554
644.3000	1.53682
644.2750	1.53915
644.2500	1.54086
644.2250	1.54218
644.2000	1.54503
644.1750	1.54467
644.1500	1.54331
644.1250	1.54098
644.1000	1.53888
644.0750	1.53889
644.0500	1.53972
644.0250	1.53742
644.0000	1.54052
643.9750	1.54138
643.9500	1.54122
643.9250	1.54216
643.9000	1.54156
643.8750	1.54204
643.8500	1.54337
643.8250	1.54615
643.8000	1.54312
643.7750	1.54577
643.7500	1.54494
643.7250	1.54309
643.7000	1.5458
643.6750	1.54586
643.6500	1.54408
643.6250	1.54511
643.6000	1.54392
643.5750	1.54594
643.5500	1.54495
643.5250	1.54388
643.5000	1.54049
643.4750	1.54058
643.4500	1.54163
643.4250	1.53926
643.4000	1.53712
643.3750	1.53999
643.3500	1.5401
643.3250	1.53873
643.3000	1.53858
643.2750	1.54023
643.2500	1.54335
643.2250	1.54375
643.2000	1.54587
643.1750	1.54655
643.1500	1.5502
643.1250	1.54938
643.1000	1.54364
643.0750	1.54459
643.0500	1.54469
643.0250	1.54657
643.0000	1.5485
642.9750	1.54853
642.9500	1.55015
642.9250	1.55214
642.9000	1.55265
642.8750	1.5531
642.8500	1.54771
642.8250	1.54388
642.8000	1.54608
642.7750	1.54632
642.7500	1.54467
642.7250	1.54086
642.7000	1.53474
642.6750	1.54105
642.6500	1.54035
642.6250	1.53983
642.6000	1.54101
642.5750	1.54225
642.5500	1.54505
642.5250	1.54626
642.5000	1.5444
642.4750	1.54335
642.4500	1.54577
642.4250	1.54556
642.4000	1.54649
642.3750	1.54738
642.3500	1.54498
642.3250	1.54736
642.3000	1.54511
642.2750	1.54708
642.2500	1.54527
642.2250	1.54312
642.2000	1.54251
642.1750	1.54057
642.1500	1.54293
642.1250	1.54196
642.1000	1.53964
642.0750	1.53874
642.0500	1.54245
642.0250	1.5447
642.0000	1.54174
641.9750	1.54142
641.9500	1.5436
641.9250	1.54427
641.9000	1.54381
641.8750	1.54284
641.8500	1.54316
641.8250	1.54332
641.8000	1.54202
641.7750	1.53605
641.7500	1.53867
641.7250	1.5413
641.7000	1.53899
641.6750	1.53953
641.6500	1.53992
641.6250	1.54423
641.6000	1.54509
641.5750	1.54628
641.5500	1.54581
641.5250	1.54956
641.5000	1.54792
641.4750	1.54955
641.4500	1.54509
641.4250	1.54256
641.4000	1.54116
641.3750	1.53938
641.3500	1.53947
641.3250	1.53803
641.3000	1.54135
641.2750	1.53984
641.2500	1.54064
641.2250	1.54182
641.2000	1.53919
641.1750	1.5366
641.1500	1.53654
641.1250	1.53637
641.1000	1.53628
641.0750	1.53623
641.0500	1.53382
641.0250	1.53432
641.0000	1.53596
640.9750	1.5322
640.9500	1.53486
640.9250	1.53559
640.9000	1.53703
640.8750	1.54253
640.8500	1.54427
640.8250	1.54443
640.8000	1.54445
640.7750	1.54111
640.7500	1.53983
640.7250	1.53983
640.7000	1.53554
640.6750	1.53531
640.6500	1.53608
640.6250	1.53634
640.6000	1.53754
640.5750	1.53429
640.5500	1.53515
640.5250	1.53826
640.5000	1.53718
640.4750	1.53496
640.4500	1.53783
640.4250	1.5413
640.4000	1.54044
640.3750	1.53879
640.3500	1.54132
640.3250	1.53891
640.3000	1.54207
640.2750	1.53794
640.2500	1.53651
640.2250	1.5368
640.2000	1.53637
640.1750	1.53895
640.1500	1.53788
640.1250	1.53837
640.1000	1.53937
640.0750	1.53825
640.0500	1.53495
640.0250	1.53205
640.0000	1.53502
639.9750	1.53667
639.9500	1.53948
639.9250	1.5402
639.9000	1.54495
639.8750	1.54502
639.8500	1.54566
639.8250	1.54157
639.8000	1.53614
639.7750	1.53664
639.7500	1.53414
639.7250	1.53314
639.7000	1.5332
639.6750	1.53165
639.6500	1.53461
639.6250	1.53171
639.6000	1.53078
639.5750	1.53106
639.5500	1.5301
639.5250	1.5323
639.5000	1.53567
639.4750	1.53677
639.4500	1.53493
639.4250	1.53367
639.4000	1.53373
639.3750	1.53194
639.3500	1.52991
639.3250	1.52653
639.3000	1.52959
639.2750	1.52889
639.2500	1.53063
639.2250	1.53395
639.2000	1.53476
639.1750	1.53632
639.1500	1.53397
639.1250	1.53266
639.1000	1.53371
639.0750	1.53005
639.0500	1.53118
639.0250	1.53304
639.0000	1.53283
638.9750	1.53402
638.9500	1.53342
638.9250	1.53578
638.9000	1.53606
638.8750	1.53583
638.8500	1.53693
638.8250	1.53918
638.8000	1.53957
638.7750	1.53991
638.7500	1.53715
638.7250	1.54034
638.7000	1.54035
638.6750	1.53702
638.6500	1.53528
638.6250	1.53271
638.6000	1.53295
638.5750	1.52939
638.5500	1.52876
638.5250	1.52878
638.5000	1.53102
638.4750	1.52912
638.4500	1.52757
638.4250	1.52778
638.4000	1.52753
638.3750	1.52686
638.3500	1.52712
638.3250	1.52703
638.3000	1.53169
638.2750	1.53073
638.2500	1.52967
638.2250	1.53137
638.2000	1.53203
638.1750	1.52916
638.1500	1.52959
638.1250	1.52743
638.1000	1.52831
638.0750	1.52848
638.0500	1.5298
638.0250	1.52891
638.0000	1.53249
637.9750	1.53343
637.9500	1.53756
637.9250	1.5376
637.9000	1.53618
637.8750	1.53344
637.8500	1.53128
637.8250	1.52898
637.8000	1.52475
637.7750	1.52555
637.7500	1.52704
637.7250	1.52467
637.7000	1.52559
637.6750	1.52287
637.6500	1.52207
637.6250	1.52229
637.6000	1.52269
637.5750	1.52264
637.5500	1.52361
637.5250	1.52367
637.5000	1.52477
637.4750	1.52396
637.4500	1.52065
637.4250	1.51866
637.4000	1.51675
637.3750	1.51503
637.3500	1.5162
637.3250	1.51669
637.3000	1.51685
637.2750	1.51801
637.2500	1.51893
637.2250	1.51978
637.2000	1.52204
637.1750	1.52592
637.1500	1.52802
637.1250	1.52937
637.1000	1.5292
637.0750	1.53007
637.0500	1.5296
637.0250	1.52805
637.0000	1.52663
636.9750	1.52742
636.9500	1.52458
636.9250	1.52323
636.9000	1.52329
636.8750	1.52369
636.8500	1.52279
636.8250	1.52491
636.8000	1.52654
636.7750	1.52835
636.7500	1.52836
636.7250	1.52747
636.7000	1.52709
636.6750	1.52646
636.6500	1.52414
636.6250	1.5264
636.6000	1.52582
636.5750	1.52519
636.5500	1.52944
636.5250	1.52642
636.5000	1.52534
636.4750	1.52338
636.4500	1.51769
636.4250	1.5143
636.4000	1.5146
636.3750	1.51636
636.3500	1.51921
636.3250	1.51965
636.3000	1.52044
636.2750	1.52181
636.2500	1.52229
636.2250	1.52249
636.2000	1.51911
636.1750	1.51918
636.1500	1.5223
636.1250	1.52359
636.1000	1.52366
636.0750	1.52192
636.0500	1.52249
636.0250	1.52424
636.0000	1.52189
635.9750	1.51912
635.9500	1.51798
635.9250	1.52047
635.9000	1.5205
635.8750	1.51902
635.8500	1.51369
635.8250	1.51534
635.8000	1.51319
635.7750	1.51485
635.7500	1.51562
635.7250	1.51378
635.7000	1.52062
635.6750	1.52532
635.6500	1.52928
635.6250	1.52743
635.6000	1.52947
635.5750	1.5327
635.5500	1.52959
635.5250	1.52925
635.5000	1.52515
635.4750	1.52781
635.4500	1.52465
635.4250	1.52311
635.4000	1.52189
635.3750	1.52358
635.3500	1.52502
635.3250	1.52481
635.3000	1.52272
635.2750	1.52472
635.2500	1.5252
635.2250	1.52282
635.2000	1.52039
635.1750	1.51935
635.1500	1.51965
635.1250	1.52018
635.1000	1.51958
635.0750	1.51909
635.0500	1.52067
635.0250	1.51989
635.0000	1.52032
634.9750	1.52121
634.9500	1.52186
634.9250	1.52412
634.9000	1.52435
634.8750	1.52283
634.8500	1.52487
634.8250	1.52431
634.8000	1.5227
634.7750	1.52243
634.7500	1.52247
634.7250	1.52362
634.7000	1.52222
634.6750	1.52409
634.6500	1.52449
634.6250	1.52615
634.6000	1.52592
634.5750	1.52746
634.5500	1.52704
634.5250	1.52769
634.5000	1.52802
634.4750	1.52698
634.4500	1.52289
634.4250	1.52208
634.4000	1.52402
634.3750	1.52364
634.3500	1.52184
634.3250	1.52231
634.3000	1.51845
634.2750	1.51995
634.2500	1.51693
634.2250	1.51597
634.2000	1.5155
634.1750	1.51689
634.1500	1.5225
634.1250	1.52505
634.1000	1.52872
634.0750	1.52764
634.0500	1.52793
634.0250	1.52871
634.0000	1.52504
633.9750	1.5268
633.9500	1.52667
633.9250	1.52591
633.9000	1.52708
633.8750	1.52702
633.8500	1.52743
633.8250	1.52414
633.8000	1.51878
633.7750	1.51658
633.7500	1.51875
633.7250	1.51902
633.7000	1.51702
633.6750	1.5158
633.6500	1.51791
633.6250	1.52144
633.6000	1.52033
633.5750	1.51949
633.5500	1.5208
633.5250	1.52099
633.5000	1.52135
633.4750	1.52091
633.4500	1.52086
633.4250	1.51754
633.4000	1.51644
633.3750	1.51752
633.3500	1.51722
633.3250	1.51467
633.3000	1.51565
633.2750	1.5161
633.2500	1.51577
633.2250	1.51679
633.2000	1.52054
633.1750	1.52255
633.1500	1.5212
633.1250	1.52129
633.1000	1.52297
633.0750	1.52131
633.0500	1.52055
633.0250	1.52022
633.0000	1.51887
632.9750	1.52178
632.9500	1.52242
632.9250	1.52393
632.9000	1.52385
632.8750	1.52396
632.8500	1.52863
632.8250	1.5281
632.8000	1.52511
632.7750	1.52628
632.7500	1.52664
632.7250	1.5286
632.7000	1.52506
632.6750	1.52325
632.6500	1.52174
632.6250	1.52442
632.6000	1.52441
632.5750	1.52436
632.5500	1.52198
632.5250	1.52503
632.5000	1.52473
632.4750	1.52325
632.4500	1.5244
632.4250	1.52244
632.4000	1.52324
632.3750	1.52012
632.3500	1.52399
632.3250	1.52273
632.3000	1.52145
632.2750	1.52562
632.2500	1.52569
632.2250	1.52543
632.2000	1.52567
632.1750	1.52518
632.1500	1.52615
632.1250	1.5237
632.1000	1.52436
632.0750	1.52688
632.0500	1.52563
632.0250	1.52558
632.0000	1.527
631.9750	1.52625
631.9500	1.52598
631.9250	1.52473
631.9000	1.52524
631.8750	1.52585
631.8500	1.52434
631.8250	1.52209
631.8000	1.52518
631.7750	1.52221
631.7500	1.52096
631.7250	1.52248
631.7000	1.52373
631.6750	1.52677
631.6500	1.5271
631.6250	1.52668
631.6000	1.5259
631.5750	1.52587
631.5500	1.52488
631.5250	1.51905
631.5000	1.51842
631.4750	1.51772
631.4500	1.5182
631.4250	1.52183
631.4000	1.52158
631.3750	1.52399
631.3500	1.52407
631.3250	1.52458
631.3000	1.52136
631.2750	1.5234
631.2500	1.52173
631.2250	1.51887
631.2000	1.51934
631.1750	1.51757
631.1500	1.51813
631.1250	1.51979
631.1000	1.51718
631.0750	1.51845
631.0500	1.52145
631.0250	1.52456
631.0000	1.52576
630.9750	1.52595
630.9500	1.5274
630.9250	1.52856
630.9000	1.5247
630.8750	1.52365
630.8500	1.52309
630.8250	1.52069
630.8000	1.52219
630.7750	1.52249
630.7500	1.52438
630.7250	1.52346
630.7000	1.52293
630.6750	1.52729
630.6500	1.52859
630.6250	1.52936
630.6000	1.53099
630.5750	1.52733
630.5500	1.52967
630.5250	1.52666
630.5000	1.52339
630.4750	1.52423
630.4500	1.52458
630.4250	1.52708
630.4000	1.52725
630.3750	1.52843
630.3500	1.52928
630.3250	1.52606
630.3000	1.52318
630.2750	1.52328
630.2500	1.524
630.2250	1.52275
630.2000	1.52268
630.1750	1.5226
630.1500	1.52364
630.1250	1.52461
630.1000	1.52393
630.0750	1.52438
630.0500	1.52762
630.0250	1.52789
630.0000	1.52653
629.9750	1.52864
629.9500	1.52811
629.9250	1.52663
629.9000	1.52801
629.8750	1.52589
629.8500	1.52528
629.8250	1.52324
629.8000	1.52131
629.7750	1.52314
629.7500	1.5248
629.7250	1.52238
629.7000	1.51998
629.6750	1.52223
629.6500	1.52115
629.6250	1.52248
629.6000	1.5181
629.5750	1.5188
629.5500	1.52012
629.5250	1.52095
629.5000	1.51942
629.4750	1.51887
629.4500	1.51626
629.4250	1.51697
629.4000	1.51818
629.3750	1.51845
629.3500	1.51847
629.3250	1.51914
629.3000	1.52068
629.2750	1.51892
629.2500	1.51676
629.2250	1.52043
629.2000	1.51854
629.1750	1.51722
629.1500	1.51713
629.1250	1.51739
629.1000	1.51772
629.0750	1.51672
629.0500	1.5137
629.0250	1.51622
629.0000	1.51826
628.9750	1.51703
628.9500	1.51818
628.9250	1.5164
628.9000	1.51749
628.8750	1.51761
628.8500	1.51397
628.8250	1.51351
628.8000	1.5134
628.7750	1.51636
628.7500	1.51569
628.7250	1.51698
628.7000	1.51686
628.6750	1.51629
628.6500	1.517
628.6250	1.51542
628.6000	1.51639
628.5750	1.51585
628.5500	1.51941
628.5250	1.52013
628.5000	1.52023
628.4750	1.51967
628.4500	1.52105
628.4250	1.5207
628.4000	1.52071
628.3750	1.51855
628.3500	1.52005
628.3250	1.52045
628.3000	1.52204
628.2750	1.51735
628.2500	1.51985
628.2250	1.5204
628.2000	1.51518
628.1750	1.51779
628.1500	1.51614
628.1250	1.51685
628.1000	1.51755
628.0750	1.51878
628.0500	1.52031
628.0250	1.52047
628.0000	1.51897
627.9750	1.51698
627.9500	1.51664
627.9250	1.51326
627.9000	1.51452
627.8750	1.51544
627.8500	1.5181
627.8250	1.51903
627.8000	1.52244
627.7750	1.52452
627.7500	1.52472
627.7250	1.52228
627.7000	1.51952
627.6750	1.52022
627.6500	1.5175
627.6250	1.51713
627.6000	1.51587
627.5750	1.51864
627.5500	1.51927
627.5250	1.5186
627.5000	1.51842
627.4750	1.51758
627.4500	1.51709
627.4250	1.51618
627.4000	1.51417
627.3750	1.51061
627.3500	1.51094
627.3250	1.51085
627.3000	1.51142
627.2750	1.51359
627.2500	1.50947
627.2250	1.51164
627.2000	1.5118
627.1750	1.51006
627.1500	1.51082
627.1250	1.50857
627.1000	1.51007
627.0750	1.51182
627.0500	1.51038
627.0250	1.51117
627.0000	1.5132
626.9750	1.51501
626.9500	1.51329
626.9250	1.51638
626.9000	1.51432
626.8750	1.5159
626.8500	1.51717
626.8250	1.5102
626.8000	1.51293
626.7750	1.51193
626.7500	1.51111
626.7250	1.5116
626.7000	1.5143
626.6750	1.51641
626.6500	1.5133
626.6250	1.51601
626.6000	1.51506
626.5750	1.51759
626.5500	1.51467
626.5250	1.51443
626.5000	1.51277
626.4750	1.51373
626.4500	1.51611
626.4250	1.51624
626.4000	1.51331
626.3750	1.51473
626.3500	1.51314
626.3250	1.51256
626.3000	1.51304
626.2750	1.51474
626.2500	1.50953
626.2250	1.50896
626.2000	1.50759
626.1750	1.51031
626.1500	1.50756
626.1250	1.50622
626.1000	1.50153
626.0750	1.5025
626.0500	1.50405
626.0250	1.50224
626.0000	1.50192
625.9750	1.50155
625.9500	1.50599
625.9250	1.50803
625.9000	1.5057
625.8750	1.51062
625.8500	1.51054
625.8250	1.51407
625.8000	1.51158
625.7750	1.51124
625.7500	1.51103
625.7250	1.50521
625.7000	1.50382
625.6750	1.50346
625.6500	1.50406
625.6250	1.50404
625.6000	1.50666
625.5750	1.50664
625.5500	1.5069
625.5250	1.5073
625.5000	1.50809
625.4750	1.50874
625.4500	1.50882
625.4250	1.50837
625.4000	1.50821
625.3750	1.50687
625.3500	1.50462
625.3250	1.50664
625.3000	1.50387
625.2750	1.50733
625.2500	1.50842
625.2250	1.50613
625.2000	1.50878
625.1750	1.50706
625.1500	1.50873
625.1250	1.50785
625.1000	1.50726
625.0750	1.5105
625.0500	1.50988
625.0250	1.50824
625.0000	1.50696
624.9750	1.50394
624.9500	1.50231
624.9250	1.50004
624.9000	1.50155
624.8750	1.50099
624.8500	1.50189
624.8250	1.49928
624.8000	1.49853
624.7750	1.50048
624.7500	1.49981
624.7250	1.5007
624.7000	1.50234
624.6750	1.50315
624.6500	1.50589
624.6250	1.50671
624.6000	1.50829
624.5750	1.50907
624.5500	1.51183
624.5250	1.51324
624.5000	1.51277
624.4750	1.51398
624.4500	1.51352
624.4250	1.51231
624.4000	1.5073
624.3750	1.50487
624.3500	1.50372
624.3250	1.50218
624.3000	1.50046
624.2750	1.50012
624.2500	1.50218
624.2250	1.50455
624.2000	1.50376
624.1750	1.50369
624.1500	1.5061
624.1250	1.50824
624.1000	1.50945
624.0750	1.50839
624.0500	1.50773
624.0250	1.50854
624.0000	1.50934
623.9750	1.50546
623.9500	1.50521
623.9250	1.50271
623.9000	1.50337
623.8750	1.50434
623.8500	1.50296
623.8250	1.50437
623.8000	1.50624
623.7750	1.50575
623.7500	1.50374
623.7250	1.5034
623.7000	1.5058
623.6750	1.51142
623.6500	1.5108
623.6250	1.50737
623.6000	1.51175
623.5750	1.51199
623.5500	1.51233
623.5250	1.5094
623.5000	1.50575
623.4750	1.50747
623.4500	1.51042
623.4250	1.51194
623.4000	1.51107
623.3750	1.51018
623.3500	1.51315
623.3250	1.51037
623.3000	1.50809
623.2750	1.50784
623.2500	1.50743
623.2250	1.50477
623.2000	1.5028
623.1750	1.49925
623.1500	1.5015
623.1250	1.50557
623.1000	1.5051
623.0750	1.50868
623.0500	1.51188
623.0250	1.51565
623.0000	1.51412
622.9750	1.51247
622.9500	1.5127
622.9250	1.51123
622.9000	1.51119
622.8750	1.50911
622.8500	1.50836
622.8250	1.51231
622.8000	1.51166
622.7750	1.50761
622.7500	1.50998
622.7250	1.50801
622.7000	1.50831
622.6750	1.50565
622.6500	1.50237
622.6250	1.50507
622.6000	1.50392
622.5750	1.50548
622.5500	1.50713
622.5250	1.51003
622.5000	1.51295
622.4750	1.51345
622.4500	1.5143
622.4250	1.51811
622.4000	1.51494
622.3750	1.51471
622.3500	1.51199
622.3250	1.51206
622.3000	1.51093
622.2750	1.50835
622.2500	1.5093
622.2250	1.50708
622.2000	1.50556
622.1750	1.50541
622.1500	1.50413
622.1250	1.50498
622.1000	1.50563
622.0750	1.50415
622.0500	1.50514
622.0250	1.5098
622.0000	1.50993
621.9750	1.50771
621.9500	1.50538
621.9250	1.51059
621.9000	1.51318
621.8750	1.51214
621.8500	1.51203
621.8250	1.51188
621.8000	1.51197
621.7750	1.50937
621.7500	1.50614
621.7250	1.50412
621.7000	1.50373
621.6750	1.50479
621.6500	1.50806
621.6250	1.50888
621.6000	1.50813
621.5750	1.51175
621.5500	1.51194
621.5250	1.51128
621.5000	1.50847
621.4750	1.50819
621.4500	1.50827
621.4250	1.51235
621.4000	1.51176
621.3750	1.51256
621.3500	1.51501
621.3250	1.51349
621.3000	1.51011
621.2750	1.50543
621.2500	1.50324
621.2250	1.50364
621.2000	1.50759
621.1750	1.50331
621.1500	1.50614
621.1250	1.5074
621.1000	1.50824
621.0750	1.50693
621.0500	1.49981
621.0250	1.50269
621.0000	1.50513
620.9750	1.50261
620.9500	1.50529
620.9250	1.50857
620.9000	1.5124
620.8750	1.5129
620.8500	1.50979
620.8250	1.51116
620.8000	1.50833
620.7750	1.50594
620.7500	1.50339
620.7250	1.50185
620.7000	1.50418
620.6750	1.50638
620.6500	1.50616
620.6250	1.50583
620.6000	1.50544
620.5750	1.50678
620.5500	1.50891
620.5250	1.50636
620.5000	1.50497
620.4750	1.50417
620.4500	1.50656
620.4250	1.50809
620.4000	1.50627
620.3750	1.50749
620.3500	1.50712
620.3250	1.51039
620.3000	1.51025
620.2750	1.50707
620.2500	1.50538
620.2250	1.50428
620.2000	1.50406
620.1750	1.50315
620.1500	1.50031
620.1250	1.49934
620.1000	1.50213
620.0750	1.50379
620.0500	1.50099
620.0250	1.50294
620.0000	1.50821
619.9750	1.50589
619.9500	1.5064
619.9250	1.50612
619.9000	1.50342
619.8750	1.50172
619.8500	1.50233
619.8250	1.50538
619.8000	1.50405
619.7750	1.50355
619.7500	1.5045
619.7250	1.50712
619.7000	1.50654
619.6750	1.50432
619.6500	1.50354
619.6250	1.50755
619.6000	1.50558
619.5750	1.50709
619.5500	1.5064
619.5250	1.50493
619.5000	1.50266
619.4750	1.50462
619.4500	1.50222
619.4250	1.50323
619.4000	1.50092
619.3750	1.50088
619.3500	1.50447
619.3250	1.50671
619.3000	1.50488
619.2750	1.50384
619.2500	1.5051
619.2250	1.50824
619.2000	1.50546
619.1750	1.50318
619.1500	1.50531
619.1250	1.5028
619.1000	1.50391
619.0750	1.50561
619.0500	1.50588
619.0250	1.50387
619.0000	1.50596
618.9750	1.50538
618.9500	1.50726
618.9250	1.50461
618.9000	1.5082
618.8750	1.50814
618.8500	1.50925
618.8250	1.50498
618.8000	1.50658
618.7750	1.50678
618.7500	1.50565
618.7250	1.50413
618.7000	1.5032
618.6750	1.50589
618.6500	1.50427
618.6250	1.50566
618.6000	1.50764
618.5750	1.50628
618.5500	1.50878
618.5250	1.50806
618.5000	1.50794
618.4750	1.5086
618.4500	1.5064
618.4250	1.50511
618.4000	1.50391
618.3750	1.50387
618.3500	1.50408
618.3250	1.50218
618.3000	1.50344
618.2750	1.50078
618.2500	1.5017
618.2250	1.50002
618.2000	1.50012
618.1750	1.50105
618.1500	1.49969
618.1250	1.50254
618.1000	1.50688
618.0750	1.50592
618.0500	1.50435
618.0250	1.50701
618.0000	1.51131
617.9750	1.51089
617.9500	1.50782
617.9250	1.50605
617.9000	1.50481
617.8750	1.50682
617.8500	1.50247
617.8250	1.49934
617.8000	1.49886
617.7750	1.50024
617.7500	1.50254
617.7250	1.50133
617.7000	1.50288
617.6750	1.50662
617.6500	1.50403
617.6250	1.50506
617.6000	1.50432
617.5750	1.50366
617.5500	1.50577
617.5250	1.50334
617.5000	1.50326
617.4750	1.50553
617.4500	1.50661
617.4250	1.50705
617.4000	1.50249
617.3750	1.49883
617.3500	1.4989
617.3250	1.4976
617.3000	1.49646
617.2750	1.49473
617.2500	1.49792
617.2250	1.49797
617.2000	1.50109
617.1750	1.50151
617.1500	1.50129
617.1250	1.49918
617.1000	1.50155
617.0750	1.50096
617.0500	1.50091
617.0250	1.49819
617.0000	1.4974
616.9750	1.49689
616.9500	1.49629
616.9250	1.49324
616.9000	1.49197
616.8750	1.49409
616.8500	1.49282
616.8250	1.49213
616.8000	1.49447
616.7750	1.49619
616.7500	1.50029
616.7250	1.49766
616.7000	1.4959
616.6750	1.49802
616.6500	1.49481
616.6250	1.49542
616.6000	1.4938
616.5750	1.49474
616.5500	1.49709
616.5250	1.49372
616.5000	1.49285
616.4750	1.49298
616.4500	1.48988
616.4250	1.487
616.4000	1.48585
616.3750	1.48825
616.3500	1.4917
616.3250	1.49216
616.3000	1.49147
616.2750	1.4921
616.2500	1.49109
616.2250	1.49278
616.2000	1.4918
616.1750	1.4914
616.1500	1.49398
616.1250	1.49591
616.1000	1.49785
616.0750	1.49463
616.0500	1.49624
616.0250	1.49742
616.0000	1.49718
615.9750	1.49712
615.9500	1.49529
615.9250	1.4957
615.9000	1.49763
615.8750	1.49489
615.8500	1.49139
615.8250	1.48931
615.8000	1.48816
615.7750	1.48892
615.7500	1.49045
615.7250	1.48985
615.7000	1.48993
615.6750	1.48835
615.6500	1.48713
615.6250	1.48681
615.6000	1.48652
615.5750	1.48632
615.5500	1.48547
615.5250	1.48889
615.5000	1.49141
615.4750	1.49418
615.4500	1.49373
615.4250	1.49203
615.4000	1.49323
615.3750	1.49359
615.3500	1.49283
615.3250	1.49316
615.3000	1.49042
615.2750	1.49059
615.2500	1.49013
615.2250	1.48888
615.2000	1.48731
615.1750	1.48466
615.1500	1.48364
615.1250	1.48579
615.1000	1.48845
615.0750	1.4887
615.0500	1.48673
615.0250	1.49142
615.0000	1.49268
614.9750	1.49475
614.9500	1.48948
614.9250	1.49141
614.9000	1.49505
614.8750	1.49458
614.8500	1.49231
614.8250	1.49084
614.8000	1.49363
614.7750	1.49412
614.7500	1.49471
614.7250	1.49312
614.7000	1.4948
614.6750	1.4945
614.6500	1.49508
614.6250	1.49671
614.6000	1.49357
614.5750	1.4951
614.5500	1.4945
614.5250	1.49433
614.5000	1.49539
614.4750	1.49211
614.4500	1.49245
614.4250	1.48916
614.4000	1.4917
614.3750	1.49148
614.3500	1.49099
614.3250	1.49249
614.3000	1.4932
614.2750	1.49311
614.2500	1.4928
614.2250	1.49273
614.2000	1.49365
614.1750	1.49063
614.1500	1.48911
614.1250	1.48867
614.1000	1.48807
614.0750	1.48647
614.0500	1.48649
614.0250	1.48707
614.0000	1.48625
613.9750	1.48871
613.9500	1.48891
613.9250	1.48998
613.9000	1.48848
613.8750	1.48818
613.8500	1.48943
613.8250	1.49218
613.8000	1.49164
613.7750	1.49313
613.7500	1.49197
613.7250	1.49245
613.7000	1.49034
613.6750	1.48541
613.6500	1.48443
613.6250	1.48509
613.6000	1.48659
613.5750	1.4855
613.5500	1.48629
613.5250	1.49032
613.5000	1.4892
613.4750	1.48806
613.4500	1.48811
613.4250	1.48923
613.4000	1.49083
613.3750	1.48746
613.3500	1.48789
613.3250	1.48771
613.3000	1.48482
613.2750	1.48419
613.2500	1.48391
613.2250	1.48592
613.2000	1.48731
613.1750	1.48994
613.1500	1.49281
613.1250	1.49366
613.1000	1.49029
613.0750	1.4887
613.0500	1.48735
613.0250	1.48311
613.0000	1.48478
612.9750	1.48546
612.9500	1.48543
612.9250	1.48567
612.9000	1.48411
612.8750	1.48612
612.8500	1.48418
612.8250	1.48297
612.8000	1.48354
612.7750	1.48457
612.7500	1.48427
612.7250	1.48253
612.7000	1.48511
612.6750	1.48673
612.6500	1.48397
612.6250	1.4813
612.6000	1.4807
612.5750	1.48157
612.5500	1.48155
612.5250	1.48338
612.5000	1.48334
612.4750	1.48243
612.4500	1.48651
612.4250	1.48539
612.4000	1.48013
612.3750	1.48343
612.3500	1.48245
612.3250	1.4863
612.3000	1.48478
612.2750	1.4864
612.2500	1.48922
612.2250	1.48808
612.2000	1.48464
612.1750	1.48435
612.1500	1.48289
612.1250	1.48279
612.1000	1.48429
612.0750	1.48443
612.0500	1.48599
612.0250	1.48866
612.0000	1.48752
611.9750	1.49085
611.9500	1.48969
611.9250	1.49206
611.9000	1.49251
611.8750	1.49095
611.8500	1.4898
611.8250	1.48843
611.8000	1.48621
611.7750	1.48364
611.7500	1.47962
611.7250	1.47839
611.7000	1.47904
611.6750	1.47934
611.6500	1.48155
611.6250	1.48035
611.6000	1.48002
611.5750	1.4787
611.5500	1.47979
611.5250	1.47963
611.5000	1.47919
611.4750	1.48092
611.4500	1.48141
611.4250	1.48207
611.4000	1.48151
611.3750	1.47956
611.3500	1.48219
611.3250	1.48258
611.3000	1.48287
611.2750	1.4856
611.2500	1.48521
611.2250	1.48639
611.2000	1.48531
611.1750	1.48586
611.1500	1.4866
611.1250	1.48684
611.1000	1.48672
611.0750	1.48894
611.0500	1.48917
611.0250	1.49069
611.0000	1.48826
610.9750	1.49082
610.9500	1.49034
610.9250	1.49096
610.9000	1.49021
610.8750	1.49182
610.8500	1.4937
610.8250	1.49511
610.8000	1.49455
610.7750	1.49653
610.7500	1.49821
610.7250	1.49635
610.7000	1.49604
610.6750	1.49622
610.6500	1.49493
610.6250	1.4943
610.6000	1.49387
610.5750	1.49486
610.5500	1.49439
610.5250	1.49351
610.5000	1.48968
610.4750	1.48944
610.4500	1.48845
610.4250	1.48666
610.4000	1.48864
610.3750	1.48834
610.3500	1.4908
610.3250	1.48605
610.3000	1.48942
610.2750	1.4894
610.2500	1.48677
610.2250	1.48596
610.2000	1.48462
610.1750	1.48919
610.1500	1.48603
610.1250	1.48583
610.1000	1.48958
610.0750	1.49094
610.0500	1.49237
610.0250	1.49063
610.0000	1.48942
609.9750	1.48991
609.9500	1.48927
609.9250	1.4863
609.9000	1.4882
609.8750	1.49029
609.8500	1.49062
609.8250	1.49232
609.8000	1.49166
609.7750	1.4909
609.7500	1.48891
609.7250	1.48943
609.7000	1.48598
609.6750	1.48699
609.6500	1.49077
609.6250	1.48968
609.6000	1.49119
609.5750	1.49171
609.5500	1.49224
609.5250	1.49055
609.5000	1.48826
609.4750	1.48576
609.4500	1.48834
609.4250	1.48637
609.4000	1.48782
609.3750	1.48813
609.3500	1.48814
609.3250	1.48928
609.3000	1.491
609.2750	1.48959
609.2500	1.48899
609.2250	1.48896
609.2000	1.49166
609.1750	1.49212
609.1500	1.49174
609.1250	1.48978
609.1000	1.49048
609.0750	1.48917
609.0500	1.48854
609.0250	1.48823
609.0000	1.49118
608.9750	1.49125
608.9500	1.49044
608.9250	1.49226
608.9000	1.49144
608.8750	1.48432
608.8500	1.4855
608.8250	1.4858
608.8000	1.48534
608.7750	1.48503
608.7500	1.4885
608.7250	1.48686
608.7000	1.48824
608.6750	1.4844
608.6500	1.48334
608.6250	1.47856
608.6000	1.48227
608.5750	1.4842
608.5500	1.48539
608.5250	1.48452
608.5000	1.48795
608.4750	1.48961
608.4500	1.49041
608.4250	1.48799
608.4000	1.48619
608.3750	1.48492
608.3500	1.48238
608.3250	1.47703
608.3000	1.47747
608.2750	1.47776
608.2500	1.47834
608.2250	1.47933
608.2000	1.47977
608.1750	1.48142
608.1500	1.48371
608.1250	1.48411
608.1000	1.48635
608.0750	1.48985
608.0500	1.49111
608.0250	1.49355
608.0000	1.48843
607.9750	1.48773
607.9500	1.48872
607.9250	1.48617
607.9000	1.48517
607.8750	1.48354
607.8500	1.48325
607.8250	1.48325
607.8000	1.48175
607.7750	1.48181
607.7500	1.4807
607.7250	1.48042
607.7000	1.48278
607.6750	1.48343
607.6500	1.48075
607.6250	1.48191
607.6000	1.48057
607.5750	1.48172
607.5500	1.47906
607.5250	1.47946
607.5000	1.47912
607.4750	1.48167
607.4500	1.48214
607.4250	1.48346
607.4000	1.4815
607.3750	1.48245
607.3500	1.48231
607.3250	1.47896
607.3000	1.47782
607.2750	1.47747
607.2500	1.48243
607.2250	1.48149
607.2000	1.48377
607.1750	1.49
607.1500	1.49002
607.1250	1.48895
607.1000	1.48649
607.0750	1.48463
607.0500	1.48725
607.0250	1.48644
607.0000	1.48674
606.9750	1.48679
606.9500	1.4905
606.9250	1.4905
606.9000	1.48784
606.8750	1.48777
606.8500	1.48705
606.8250	1.48615
606.8000	1.48642
606.7750	1.4821
606.7500	1.48566
606.7250	1.49022
606.7000	1.48717
606.6750	1.48421
606.6500	1.48388
606.6250	1.48462
606.6000	1.48451
606.5750	1.48327
606.5500	1.4791
606.5250	1.48062
606.5000	1.48212
606.4750	1.48346
606.4500	1.48278
606.4250	1.48327
606.4000	1.48119
606.3750	1.4839
606.3500	1.48274
606.3250	1.48119
606.3000	1.48241
606.2750	1.48322
606.2500	1.48207
606.2250	1.48454
606.2000	1.48294
606.1750	1.4859
606.1500	1.48352
606.1250	1.48446
606.1000	1.48356
606.0750	1.48419
606.0500	1.48551
606.0250	1.48342
606.0000	1.48614
605.9750	1.48556
605.9500	1.48669
605.9250	1.48588
605.9000	1.48399
605.8750	1.48468
605.8500	1.48339
605.8250	1.48623
605.8000	1.4837
605.7750	1.48629
605.7500	1.48495
605.7250	1.48593
605.7000	1.48445
605.6750	1.48251
605.6500	1.48462
605.6250	1.48632
605.6000	1.4844
605.5750	1.48388
605.5500	1.48405
605.5250	1.48533
605.5000	1.48391
605.4750	1.48373
605.4500	1.48324
605.4250	1.48488
605.4000	1.48451
605.3750	1.48472
605.3500	1.48347
605.3250	1.48146
605.3000	1.48055
605.2750	1.47854
605.2500	1.47975
605.2250	1.4771
605.2000	1.47819
605.1750	1.47636
605.1500	1.47659
605.1250	1.47837
605.1000	1.47541
605.0750	1.47301
605.0500	1.47253
605.0250	1.47167
605.0000	1.4696
604.9750	1.46857
604.9500	1.46805
604.9250	1.47372
604.9000	1.47392
604.8750	1.47266
604.8500	1.47565
604.8250	1.47595
604.8000	1.48068
604.7750	1.48068
604.7500	1.47665
604.7250	1.47844
604.7000	1.47703
604.6750	1.47802
604.6500	1.47343
604.6250	1.47456
604.6000	1.47156
604.5750	1.47234
604.5500	1.47012
604.5250	1.46929
604.5000	1.46794
604.4750	1.46585
604.4500	1.46873
604.4250	1.46799
604.4000	1.46931
604.3750	1.46973
604.3500	1.4688
604.3250	1.46932
604.3000	1.47139
604.2750	1.46825
604.2500	1.46646
604.2250	1.46541
604.2000	1.4617
604.1750	1.46272
604.1500	1.46224
604.1250	1.46239
604.1000	1.46475
604.0750	1.46292
604.0500	1.46839
604.0250	1.46941
604.0000	1.467
603.9750	1.46599
603.9500	1.46484
603.9250	1.46022
603.9000	1.45886
603.8750	1.45946
603.8500	1.46023
603.8250	1.4609
603.8000	1.46194
603.7750	1.46493
603.7500	1.46682
603.7250	1.4678
603.7000	1.4699
603.6750	1.46537
603.6500	1.46485
603.6250	1.46286
603.6000	1.46097
603.5750	1.45992
603.5500	1.46014
603.5250	1.46141
603.5000	1.46329
603.4750	1.46682
603.4500	1.46812
603.4250	1.46605
603.4000	1.46475
603.3750	1.46578
603.3500	1.4652
603.3250	1.46514
603.3000	1.46534
603.2750	1.46642
603.2500	1.47205
603.2250	1.47242
603.2000	1.47419
603.1750	1.47566
603.1500	1.4762
603.1250	1.47649
603.1000	1.47732
603.0750	1.4794
603.0500	1.47711
603.0250	1.47385
603.0000	1.47504
602.9750	1.47327
602.9500	1.47062
602.9250	1.46762
602.9000	1.46773
602.8750	1.46964
602.8500	1.47069
602.8250	1.47272
602.8000	1.47591
602.7750	1.47752
602.7500	1.4788
602.7250	1.48085
602.7000	1.47933
602.6750	1.47648
602.6500	1.47587
602.6250	1.47534
602.6000	1.4753
602.5750	1.47216
602.5500	1.47339
602.5250	1.47365
602.5000	1.47378
602.4750	1.47421
602.4500	1.47376
602.4250	1.4755
602.4000	1.47628
602.3750	1.47835
602.3500	1.47865
602.3250	1.47669
602.3000	1.47701
602.2750	1.47728
602.2500	1.47431
602.2250	1.47336
602.2000	1.47199
602.1750	1.47242
602.1500	1.47406
602.1250	1.4746
602.1000	1.4759
602.0750	1.47555
602.0500	1.4787
602.0250	1.47847
602.0000	1.48121
601.9750	1.48096
601.9500	1.48129
601.9250	1.48226
601.9000	1.48069
601.8750	1.48108
601.8500	1.47784
601.8250	1.47609
601.8000	1.47173
601.7750	1.47261
601.7500	1.47138
601.7250	1.47043
601.7000	1.46903
601.6750	1.46859
601.6500	1.47097
601.6250	1.47316
601.6000	1.47193
601.5750	1.47403
601.5500	1.47394
601.5250	1.47718
601.5000	1.47745
601.4750	1.47755
601.4500	1.47811
601.4250	1.47868
601.4000	1.48218
601.3750	1.4789
601.3500	1.47545
601.3250	1.47423
601.3000	1.4743
601.2750	1.47326
601.2500	1.4731
601.2250	1.47134
601.2000	1.47567
601.1750	1.47355
601.1500	1.47602
601.1250	1.47518
601.1000	1.47401
601.0750	1.47354
601.0500	1.47376
601.0250	1.47347
601.0000	1.47099
600.9750	1.46767
600.9500	1.46744
600.9250	1.46479
600.9000	1.46066
600.8750	1.46247
600.8500	1.45932
600.8250	1.46027
600.8000	1.45946
600.7750	1.46007
600.7500	1.46666
600.7250	1.46438
600.7000	1.46474
600.6750	1.4685
600.6500	1.46725
600.6250	1.46993
600.6000	1.46804
600.5750	1.46811
600.5500	1.46993
600.5250	1.46643
600.5000	1.46614
600.4750	1.46617
600.4500	1.46425
600.4250	1.4639
600.4000	1.4633
600.3750	1.46896
600.3500	1.472
600.3250	1.47278
600.3000	1.47529
600.2750	1.47315
600.2500	1.47372
600.2250	1.47193
600.2000	1.47034
600.1750	1.46916
600.1500	1.4661
600.1250	1.4661
600.1000	1.46783
600.0750	1.46831
600.0500	1.46867
600.0250	1.4675
600.0000	1.46615
599.9750	1.46604
599.9500	1.46558
599.9250	1.46482
599.9000	1.4608
599.8750	1.46025
599.8500	1.46138
599.8250	1.46141
599.8000	1.46319
599.7750	1.46452
599.7500	1.46558
599.7250	1.46829
599.7000	1.46808
599.6750	1.4651
599.6500	1.46246
599.6250	1.46263
599.6000	1.4595
599.5750	1.45991
599.5500	1.46008
599.5250	1.46385
599.5000	1.46707
599.4750	1.47129
599.4500	1.47327
599.4250	1.47427
599.4000	1.47763
599.3750	1.47342
599.3500	1.47394
599.3250	1.47144
599.3000	1.472
599.2750	1.47004
599.2500	1.4712
599.2250	1.47143
599.2000	1.47459
599.1750	1.4793
599.1500	1.48027
599.1250	1.47868
599.1000	1.47899
599.0750	1.47889
599.0500	1.47701
599.0250	1.47346
599.0000	1.47358
598.9750	1.47733
598.9500	1.47803
598.9250	1.48172
598.9000	1.48304
598.8750	1.48648
598.8500	1.48751
598.8250	1.48704
598.8000	1.48654
598.7750	1.48661
598.7500	1.48379
598.7250	1.48148
598.7000	1.48013
598.6750	1.47935
598.6500	1.47871
598.6250	1.47793
598.6000	1.47697
598.5750	1.47885
598.5500	1.47818
598.5250	1.47868
598.5000	1.47694
598.4750	1.47793
598.4500	1.47287
598.4250	1.47347
598.4000	1.47247
598.3750	1.47144
598.3500	1.47102
598.3250	1.47021
598.3000	1.47325
598.2750	1.47527
598.2500	1.47561
598.2250	1.47576
598.2000	1.47511
598.1750	1.47637
598.1500	1.47547
598.1250	1.47495
598.1000	1.47516
598.0750	1.47384
598.0500	1.47336
598.0250	1.47207
598.0000	1.47302
597.9750	1.4717
597.9500	1.47271
597.9250	1.47441
597.9000	1.47323
597.8750	1.47093
597.8500	1.47212
597.8250	1.46957
597.8000	1.4747
597.7750	1.47178
597.7500	1.47149
597.7250	1.47141
597.7000	1.4704
597.6750	1.47096
597.6500	1.46966
597.6250	1.46896
597.6000	1.47056
597.5750	1.46961
597.5500	1.47002
597.5250	1.47254
597.5000	1.47539
597.4750	1.47454
597.4500	1.47158
597.4250	1.47157
597.4000	1.47311
597.3750	1.47161
597.3500	1.47045
597.3250	1.47147
597.3000	1.47282
597.2750	1.47228
597.2500	1.47207
597.2250	1.47346
597.2000	1.47082
597.1750	1.47047
597.1500	1.46869
597.1250	1.46962
597.1000	1.46974
597.0750	1.46689
597.0500	1.46648
597.0250	1.46291
597.0000	1.46266
596.9750	1.46293
596.9500	1.46338
596.9250	1.46289
596.9000	1.46379
596.8750	1.46616
596.8500	1.46668
596.8250	1.46702
596.8000	1.47115
596.7750	1.46685
596.7500	1.46591
596.7250	1.46747
596.7000	1.46752
596.6750	1.4667
596.6500	1.46572
596.6250	1.46291
596.6000	1.46016
596.5750	1.46022
596.5500	1.45845
596.5250	1.45459
596.5000	1.45315
596.4750	1.45165
596.4500	1.4558
596.4250	1.45763
596.4000	1.45733
596.3750	1.4594
596.3500	1.46082
596.3250	1.45802
596.3000	1.4567
596.2750	1.45404
596.2500	1.45366
596.2250	1.45699
596.2000	1.45437
596.1750	1.4523
596.1500	1.45373
596.1250	1.44997
596.1000	1.45253
596.0750	1.45055
596.0500	1.45062
596.0250	1.45352
596.0000	1.45362
595.9750	1.45597
595.9500	1.45631
595.9250	1.45722
595.9000	1.45623
595.8750	1.45598
595.8500	1.45663
595.8250	1.45446
595.8000	1.45336
595.7750	1.45055
595.7500	1.44969
595.7250	1.44952
595.7000	1.44847
595.6750	1.44701
595.6500	1.44888
595.6250	1.45171
595.6000	1.45518
595.5750	1.45796
595.5500	1.45972
595.5250	1.46231
595.5000	1.46218
595.4750	1.46442
595.4500	1.46543
595.4250	1.46735
595.4000	1.46732
595.3750	1.46944
595.3500	1.47106
595.3250	1.4708
595.3000	1.47028
595.2750	1.4683
595.2500	1.46799
595.2250	1.46994
595.2000	1.47004
595.1750	1.47118
595.1500	1.47183
595.1250	1.47263
595.1000	1.46962
595.0750	1.47538
595.0500	1.47032
595.0250	1.46729
595.0000	1.4675
594.9750	1.46629
594.9500	1.4661
594.9250	1.4654
594.9000	1.46547
594.8750	1.46831
594.8500	1.46909
594.8250	1.46769
594.8000	1.46684
594.7750	1.46633
594.7500	1.46635
594.7250	1.4651
594.7000	1.46499
594.6750	1.4652
594.6500	1.46597
594.6250	1.46649
594.6000	1.4645
594.5750	1.46471
594.5500	1.46538
594.5250	1.46236
594.5000	1.4626
594.4750	1.46237
594.4500	1.46422
594.4250	1.46638
594.4000	1.46544
594.3750	1.46791
594.3500	1.46852
594.3250	1.469
594.3000	1.46692
594.2750	1.46357
594.2500	1.46346
594.2250	1.46139
594.2000	1.46045
594.1750	1.45879
594.1500	1.4621
594.1250	1.45911
594.1000	1.45837
594.0750	1.45558
594.0500	1.45196
594.0250	1.45125
594.0000	1.4535
593.9750	1.45408
593.9500	1.45298
593.9250	1.45132
593.9000	1.45322
593.8750	1.4556
593.8500	1.45429
593.8250	1.45147
593.8000	1.45168
593.7750	1.45124
593.7500	1.45011
593.7250	1.44887
593.7000	1.44875
593.6750	1.4508
593.6500	1.44811
593.6250	1.44784
593.6000	1.44968
593.5750	1.45242
593.5500	1.45492
593.5250	1.45145
593.5000	1.45172
593.4750	1.45312
593.4500	1.45287
593.4250	1.45252
593.4000	1.44755
593.3750	1.44585
593.3500	1.44778
593.3250	1.44739
593.3000	1.44701
593.2750	1.44733
593.2500	1.44861
593.2250	1.45199
593.2000	1.4536
593.1750	1.4541
593.1500	1.45246
593.1250	1.451
593.1000	1.44935
593.0750	1.44926
593.0500	1.44728
593.0250	1.44534
593.0000	1.44768
592.9750	1.44837
592.9500	1.44593
592.9250	1.44344
592.9000	1.44473
592.8750	1.44192
592.8500	1.43772
592.8250	1.43877
592.8000	1.43898
592.7750	1.44248
592.7500	1.4435
592.7250	1.44278
592.7000	1.44627
592.6750	1.44801
592.6500	1.44783
592.6250	1.44813
592.6000	1.44611
592.5750	1.44493
592.5500	1.4472
592.5250	1.44534
592.5000	1.44339
592.4750	1.44247
592.4500	1.442
592.4250	1.44142
592.4000	1.43908
592.3750	1.43804
592.3500	1.43699
592.3250	1.4356
592.3000	1.43633
592.2750	1.43939
592.2500	1.43714
592.2250	1.43658
592.2000	1.43971
592.1750	1.4417
592.1500	1.44198
592.1250	1.44046
592.1000	1.44074
592.0750	1.43861
592.0500	1.43747
592.0250	1.43418
592.0000	1.43155
591.9750	1.4309
591.9500	1.43528
591.9250	1.43784
591.9000	1.44033
591.8750	1.44428
591.8500	1.44816
591.8250	1.45087
591.8000	1.45214
591.7750	1.45457
591.7500	1.45598
591.7250	1.45981
591.7000	1.46026
591.6750	1.45691
591.6500	1.45584
591.6250	1.45399
591.6000	1.45239
591.5750	1.45169
591.5500	1.45257
591.5250	1.45507
591.5000	1.4579
591.4750	1.46077
591.4500	1.46129
591.4250	1.46154
591.4000	1.46305
591.3750	1.46496
591.3500	1.46051
591.3250	1.45763
591.3000	1.45783
591.2750	1.45582
591.2500	1.45578
591.2250	1.45352
591.2000	1.45446
591.1750	1.45607
591.1500	1.45958
591.1250	1.461
591.1000	1.45978
591.0750	1.45956
591.0500	1.45879
591.0250	1.46051
591.0000	1.46031
590.9750	1.45706
590.9500	1.45746
590.9250	1.45706
590.9000	1.45409
590.8750	1.45502
590.8500	1.45227
590.8250	1.45326
590.8000	1.45264
590.7750	1.45347
590.7500	1.45628
590.7250	1.45749
590.7000	1.45497
590.6750	1.4556
590.6500	1.45394
590.6250	1.45083
590.6000	1.45276
590.5750	1.45312
590.5500	1.45459
590.5250	1.45612
590.5000	1.45599
590.4750	1.4584
590.4500	1.45741
590.4250	1.4533
590.4000	1.45301
590.3750	1.44901
590.3500	1.45001
590.3250	1.45028
590.3000	1.45194
590.2750	1.45377
590.2500	1.45381
590.2250	1.45813
590.2000	1.4559
590.1750	1.45685
590.1500	1.45746
590.1250	1.45632
590.1000	1.45734
590.0750	1.45578
590.0500	1.45483
590.0250	1.45205
590.0000	1.44919
589.9750	1.4482
589.9500	1.44938
589.9250	1.4496
589.9000	1.45231
589.8750	1.45014
589.8500	1.4508
589.8250	1.45337
589.8000	1.4508
589.7750	1.45197
589.7500	1.44665
589.7250	1.44617
589.7000	1.44892
589.6750	1.45106
589.6500	1.44898
589.6250	1.4513
589.6000	1.45433
589.5750	1.45305
589.5500	1.45062
589.5250	1.44792
589.5000	1.44739
589.4750	1.44683
589.4500	1.44312
589.4250	1.44397
589.4000	1.44418
589.3750	1.44447
589.3500	1.44429
589.3250	1.44387
589.3000	1.44203
589.2750	1.44385
589.2500	1.44403
589.2250	1.44291
589.2000	1.44138
589.1750	1.44317
589.1500	1.44339
589.1250	1.44331
589.1000	1.44575
589.0750	1.44383
589.0500	1.44618
589.0250	1.44682
589.0000	1.44654
588.9750	1.44762
588.9500	1.44449
588.9250	1.44392
588.9000	1.44113
588.8750	1.43878
588.8500	1.43928
588.8250	1.43957
588.8000	1.43925
588.7750	1.4397
588.7500	1.4406
588.7250	1.44273
588.7000	1.44128
588.6750	1.44116
588.6500	1.44189
588.6250	1.44077
588.6000	1.43907
588.5750	1.43707
588.5500	1.43509
588.5250	1.43605
588.5000	1.43789
588.4750	1.43823
588.4500	1.4416
588.4250	1.44181
588.4000	1.44266
588.3750	1.44488
588.3500	1.44183
588.3250	1.44254
588.3000	1.44298
588.2750	1.44605
588.2500	1.44625
588.2250	1.44874
588.2000	1.45074
588.1750	1.4536
588.1500	1.45595
588.1250	1.45808
588.1000	1.46052
588.0750	1.46397
588.0500	1.4645
588.0250	1.46586
588.0000	1.4653
587.9750	1.46239
587.9500	1.46168
587.9250	1.46174
587.9000	1.46239
587.8750	1.46445
587.8500	1.46472
587.8250	1.46663
587.8000	1.46711
587.7750	1.46452
587.7500	1.46296
587.7250	1.46445
587.7000	1.46123
587.6750	1.45925
587.6500	1.45879
587.6250	1.46018
587.6000	1.4575
587.5750	1.45655
587.5500	1.45684
587.5250	1.45699
587.5000	1.45619
587.4750	1.45436
587.4500	1.45439
587.4250	1.4516
587.4000	1.45142
587.3750	1.44948
587.3500	1.45126
587.3250	1.45261
587.3000	1.45393
587.2750	1.45561
587.2500	1.46112
587.2250	1.45997
587.2000	1.45709
587.1750	1.45561
587.1500	1.4582
587.1250	1.45442
587.1000	1.45291
587.0750	1.44863
587.0500	1.44948
587.0250	1.45142
587.0000	1.45052
586.9750	1.44809
586.9500	1.45092
586.9250	1.44863
586.9000	1.44807
586.8750	1.44797
586.8500	1.44634
586.8250	1.44779
586.8000	1.44789
586.7750	1.44751
586.7500	1.44903
586.7250	1.44907
586.7000	1.44765
586.6750	1.44846
586.6500	1.44986
586.6250	1.44808
586.6000	1.44812
586.5750	1.44973
586.5500	1.45057
586.5250	1.45054
586.5000	1.44856
586.4750	1.44879
586.4500	1.44816
586.4250	1.44775
586.4000	1.44651
586.3750	1.44611
586.3500	1.44633
586.3250	1.4451
586.3000	1.44623
586.2750	1.44464
586.2500	1.44181
586.2250	1.44427
586.2000	1.44085
586.1750	1.44031
586.1500	1.44176
586.1250	1.44188
586.1000	1.44234
586.0750	1.43939
586.0500	1.4383
586.0250	1.4388
586.0000	1.43955
585.9750	1.43941
585.9500	1.44045
585.9250	1.43865
585.9000	1.44088
585.8750	1.44206
585.8500	1.44151
585.8250	1.43987
585.8000	1.4386
585.7750	1.4377
585.7500	1.43601
585.7250	1.43177
585.7000	1.43088
585.6750	1.43043
585.6500	1.42818
585.6250	1.42681
585.6000	1.42488
585.5750	1.42556
585.5500	1.42431
585.5250	1.42182
585.5000	1.42476
585.4750	1.42358
585.4500	1.42566
585.4250	1.42614
585.4000	1.42409
585.3750	1.42419
585.3500	1.42333
585.3250	1.42235
585.3000	1.42216
585.2750	1.42145
585.2500	1.42281
585.2250	1.4227
585.2000	1.42322
585.1750	1.42276
585.1500	1.42361
585.1250	1.42286
585.1000	1.42621
585.0750	1.42713
585.0500	1.43056
585.0250	1.43197
585.0000	1.43428
584.9750	1.43604
584.9500	1.43536
584.9250	1.43478
584.9000	1.43584
584.8750	1.43284
584.8500	1.43227
584.8250	1.43501
584.8000	1.4335
584.7750	1.43434
584.7500	1.4297
584.7250	1.42897
584.7000	1.43361
584.6750	1.43417
584.6500	1.43457
584.6250	1.43676
584.6000	1.439
584.5750	1.44108
584.5500	1.44182
584.5250	1.44325
584.5000	1.44266
584.4750	1.44389
584.4500	1.44463
584.4250	1.44434
584.4000	1.44853
584.3750	1.44786
584.3500	1.44767
584.3250	1.44291
584.3000	1.44481
584.2750	1.44407
584.2500	1.44601
584.2250	1.44368
584.2000	1.44296
584.1750	1.44474
584.1500	1.44316
584.1250	1.44276
584.1000	1.44291
584.0750	1.44031
584.0500	1.43914
584.0250	1.43815
584.0000	1.43591
583.9750	1.43641
583.9500	1.43796
583.9250	1.43933
583.9000	1.44216
583.8750	1.44219
583.8500	1.44643
583.8250	1.44501
583.8000	1.44437
583.7750	1.44332
583.7500	1.4428
583.7250	1.44179
583.7000	1.44228
583.6750	1.44039
583.6500	1.44145
583.6250	1.44072
583.6000	1.43685
583.5750	1.43882
583.5500	1.44002
583.5250	1.43737
583.5000	1.43838
583.4750	1.43738
583.4500	1.43965
583.4250	1.43919
583.4000	1.4398
583.3750	1.44293
583.3500	1.44213
583.3250	1.43972
583.3000	1.44017
583.2750	1.44021
583.2500	1.43621
583.2250	1.43208
583.2000	1.43287
583.1750	1.43104
583.1500	1.42949
583.1250	1.42689
583.1000	1.43029
583.0750	1.42871
583.0500	1.42629
583.0250	1.42721
583.0000	1.43084
582.9750	1.43213
582.9500	1.43141
582.9250	1.43305
582.9000	1.43566
582.8750	1.43576
582.8500	1.43343
582.8250	1.43031
582.8000	1.43194
582.7750	1.43003
582.7500	1.43017
582.7250	1.42783
582.7000	1.42907
582.6750	1.43062
582.6500	1.4301
582.6250	1.4311
582.6000	1.43172
582.5750	1.43316
582.5500	1.43361
582.5250	1.43284
582.5000	1.43269
582.4750	1.43218
582.4500	1.42735
582.4250	1.42626
582.4000	1.42421
582.3750	1.42246
582.3500	1.42341
582.3250	1.42067
582.3000	1.42226
582.2750	1.42255
582.2500	1.42212
582.2250	1.42338
582.2000	1.42407
582.1750	1.42555
582.1500	1.42536
582.1250	1.42665
582.1000	1.42537
582.0750	1.42418
582.0500	1.42383
582.0250	1.42171
582.0000	1.4199
581.9750	1.41716
581.9500	1.41929
581.9250	1.41934
581.9000	1.41754
581.8750	1.41757
581.8500	1.41804
581.8250	1.41821
581.8000	1.41687
581.7750	1.41871
581.7500	1.42127
581.7250	1.42246
581.7000	1.42434
581.6750	1.42257
581.6500	1.42299
581.6250	1.42459
581.6000	1.4239
581.5750	1.42327
581.5500	1.42051
581.5250	1.42232
581.5000	1.42189
581.4750	1.42279
581.4500	1.42275
581.4250	1.42333
581.4000	1.42284
581.3750	1.42313
581.3500	1.42081
581.3250	1.42249
581.3000	1.42211
581.2750	1.41972
581.2500	1.42185
581.2250	1.42464
581.2000	1.42779
581.1750	1.43025
581.1500	1.43343
581.1250	1.4338
581.1000	1.4349
581.0750	1.4344
581.0500	1.43462
581.0250	1.43476
581.0000	1.43706
580.9750	1.43534
580.9500	1.438
580.9250	1.43873
580.9000	1.43728
580.8750	1.43612
580.8500	1.43878
580.8250	1.44014
580.8000	1.44076
580.7750	1.43972
580.7500	1.43956
580.7250	1.43969
580.7000	1.44281
580.6750	1.4422
580.6500	1.44213
580.6250	1.44092
580.6000	1.44592
580.5750	1.44421
580.5500	1.44301
580.5250	1.44071
580.5000	1.44007
580.4750	1.44168
580.4500	1.44318
580.4250	1.44213
580.4000	1.44341
580.3750	1.44189
580.3500	1.44517
580.3250	1.44452
580.3000	1.44187
580.2750	1.44202
580.2500	1.44036
580.2250	1.44142
580.2000	1.44016
580.1750	1.43892
580.1500	1.43981
580.1250	1.43471
580.1000	1.4365
580.0750	1.4357
580.0500	1.4354
580.0250	1.4359
580.0000	1.43507
579.9750	1.4381
579.9500	1.43815
579.9250	1.43679
579.9000	1.43516
579.8750	1.43444
579.8500	1.43351
579.8250	1.43534
579.8000	1.43493
579.7750	1.43404
579.7500	1.43498
579.7250	1.43526
579.7000	1.43491
579.6750	1.43312
579.6500	1.43211
579.6250	1.4298
579.6000	1.42825
579.5750	1.42847
579.5500	1.42679
579.5250	1.42603
579.5000	1.42637
579.4750	1.43024
579.4500	1.43144
579.4250	1.43266
579.4000	1.43331
579.3750	1.43135
579.3500	1.43118
579.3250	1.42857
579.3000	1.42471
579.2750	1.42274
579.2500	1.42275
579.2250	1.42366
579.2000	1.4261
579.1750	1.42742
579.1500	1.42906
579.1250	1.4286
579.1000	1.43103
579.0750	1.43253
579.0500	1.43348
579.0250	1.4307
579.0000	1.4309
578.9750	1.43176
578.9500	1.43004
578.9250	1.42812
578.9000	1.42313
578.8750	1.42378
578.8500	1.42174
578.8250	1.42463
578.8000	1.42531
578.7750	1.42551
578.7500	1.42658
578.7250	1.42763
578.7000	1.43072
578.6750	1.43032
578.6500	1.42846
578.6250	1.42713
578.6000	1.42586
578.5750	1.42407
578.5500	1.42204
578.5250	1.42389
578.5000	1.4247
578.4750	1.42412
578.4500	1.42294
578.4250	1.42352
578.4000	1.42144
578.3750	1.41969
578.3500	1.41851
578.3250	1.41767
578.3000	1.42012
578.2750	1.42159
578.2500	1.42369
578.2250	1.42486
578.2000	1.42236
578.1750	1.42106
578.1500	1.42241
578.1250	1.41926
578.1000	1.41732
578.0750	1.41659
578.0500	1.41816
578.0250	1.41679
578.0000	1.41506
577.9750	1.41392
577.9500	1.41918
577.9250	1.42144
577.9000	1.42556
577.8750	1.42873
577.8500	1.43263
577.8250	1.43685
577.8000	1.43916
577.7750	1.44011
577.7500	1.43771
577.7250	1.43506
577.7000	1.43658
577.6750	1.43521
577.6500	1.43626
577.6250	1.43312
577.6000	1.43453
577.5750	1.43495
577.5500	1.43477
577.5250	1.43246
577.5000	1.43311
577.4750	1.4328
577.4500	1.43451
577.4250	1.4389
577.4000	1.43966
577.3750	1.44438
577.3500	1.44391
577.3250	1.44328
577.3000	1.44255
577.2750	1.44203
577.2500	1.43927
577.2250	1.43824
577.2000	1.43874
577.1750	1.43568
577.1500	1.43616
577.1250	1.43416
577.1000	1.43433
577.0750	1.43314
577.0500	1.43516
577.0250	1.43653
577.0000	1.43615
576.9750	1.43763
576.9500	1.43767
576.9250	1.43725
576.9000	1.43583
576.8750	1.43508
576.8500	1.43487
576.8250	1.43391
576.8000	1.43141
576.7750	1.43134
576.7500	1.42993
576.7250	1.42772
576.7000	1.42938
576.6750	1.42947
576.6500	1.43024
576.6250	1.42988
576.6000	1.43065
576.5750	1.43175
576.5500	1.42971
576.5250	1.42638
576.5000	1.42293
576.4750	1.42574
576.4500	1.42241
576.4250	1.41857
576.4000	1.42138
576.3750	1.42489
576.3500	1.42211
576.3250	1.42111
576.3000	1.42168
576.2750	1.42417
576.2500	1.4234
576.2250	1.41952
576.2000	1.42452
576.1750	1.42209
576.1500	1.42125
576.1250	1.41968
576.1000	1.42031
576.0750	1.42082
576.0500	1.41904
576.0250	1.42047
576.0000	1.42175
575.9750	1.42127
575.9500	1.41848
575.9250	1.42227
575.9000	1.42274
575.8750	1.42071
575.8500	1.41945
575.8250	1.42078
575.8000	1.41838
575.7750	1.41744
575.7500	1.41589
575.7250	1.41489
575.7000	1.41515
575.6750	1.41464
575.6500	1.41736
575.6250	1.41698
575.6000	1.41717
575.5750	1.41441
575.5500	1.41748
575.5250	1.41266
575.5000	1.41461
575.4750	1.41148
575.4500	1.41223
575.4250	1.41386
575.4000	1.41243
575.3750	1.41479
575.3500	1.41434
575.3250	1.41407
575.3000	1.41526
575.2750	1.41747
575.2500	1.4169
575.2250	1.418
575.2000	1.41709
575.1750	1.4171
575.1500	1.42
575.1250	1.41494
575.1000	1.41427
575.0750	1.41348
575.0500	1.4111
575.0250	1.40879
575.0000	1.40548
574.9750	1.40374
574.9500	1.40227
574.9250	1.40047
574.9000	1.40199
574.8750	1.40171
574.8500	1.40236
574.8250	1.40339
574.8000	1.40183
574.7750	1.40324
574.7500	1.40489
574.7250	1.40429
574.7000	1.40682
574.6750	1.40966
574.6500	1.41043
574.6250	1.41585
574.6000	1.41562
574.5750	1.41985
574.5500	1.42046
574.5250	1.41716
574.5000	1.41958
574.4750	1.41964
574.4500	1.41898
574.4250	1.41611
574.4000	1.41439
574.3750	1.41537
574.3500	1.41645
574.3250	1.41156
574.3000	1.41317
574.2750	1.41407
574.2500	1.41492
574.2250	1.41466
574.2000	1.41516
574.1750	1.41747
574.1500	1.41648
574.1250	1.41995
574.1000	1.41971
574.0750	1.42312
574.0500	1.42627
574.0250	1.4273
574.0000	1.42737
573.9750	1.42431
573.9500	1.4235
573.9250	1.42614
573.9000	1.42157
573.8750	1.42199
573.8500	1.42088
573.8250	1.42407
573.8000	1.4222
573.7750	1.42191
573.7500	1.42118
573.7250	1.42143
573.7000	1.42063
573.6750	1.42145
573.6500	1.4198
573.6250	1.42099
573.6000	1.41778
573.5750	1.41935
573.5500	1.4197
573.5250	1.41786
573.5000	1.41847
573.4750	1.41688
573.4500	1.41429
573.4250	1.41396
573.4000	1.41235
573.3750	1.4107
573.3500	1.41575
573.3250	1.4181
573.3000	1.4177
573.2750	1.41787
573.2500	1.42003
573.2250	1.42161
573.2000	1.41777
573.1750	1.41372
573.1500	1.4118
573.1250	1.41111
573.1000	1.40935
573.0750	1.40675
573.0500	1.40333
573.0250	1.40434
573.0000	1.40531
572.9750	1.40472
572.9500	1.40678
572.9250	1.40835
572.9000	1.41044
572.8750	1.41106
572.8500	1.4101
572.8250	1.4108
572.8000	1.41306
572.7750	1.41263
572.7500	1.41397
572.7250	1.41325
572.7000	1.41477
572.6750	1.41672
572.6500	1.41602
572.6250	1.41238
572.6000	1.40951
572.5750	1.40718
572.5500	1.40378
572.5250	1.40166
572.5000	1.40124
572.4750	1.40348
572.4500	1.40207
572.4250	1.40566
572.4000	1.40519
572.3750	1.40652
572.3500	1.40115
572.3250	1.40169
572.3000	1.40248
572.2750	1.39889
572.2500	1.40074
572.2250	1.40227
572.2000	1.40151
572.1750	1.40263
572.1500	1.39974
572.1250	1.40123
572.1000	1.40106
572.0750	1.39728
572.0500	1.39926
572.0250	1.39822
572.0000	1.39588
571.9750	1.39598
571.9500	1.39607
571.9250	1.39694
571.9000	1.39486
571.8750	1.39327
571.8500	1.39131
571.8250	1.39252
571.8000	1.38877
571.7750	1.39044
571.7500	1.39146
571.7250	1.39043
571.7000	1.38925
571.6750	1.39124
571.6500	1.39295
571.6250	1.39395
571.6000	1.39703
571.5750	1.39928
571.5500	1.4052
571.5250	1.40647
571.5000	1.41111
571.4750	1.41077
571.4500	1.41057
571.4250	1.41226
571.4000	1.41305
571.3750	1.4165
571.3500	1.41597
571.3250	1.41697
571.3000	1.41776
571.2750	1.41599
571.2500	1.41369
571.2250	1.41491
571.2000	1.41288
571.1750	1.41129
571.1500	1.40972
571.1250	1.41051
571.1000	1.41167
571.0750	1.41146
571.0500	1.41073
571.0250	1.41031
571.0000	1.41431
570.9750	1.41197
570.9500	1.41322
570.9250	1.41403
570.9000	1.41492
570.8750	1.41684
570.8500	1.41788
570.8250	1.42106
570.8000	1.42437
570.7750	1.42373
570.7500	1.42351
570.7250	1.42413
570.7000	1.4211
570.6750	1.41992
570.6500	1.41672
570.6250	1.41611
570.6000	1.41585
570.5750	1.41682
570.5500	1.41511
570.5250	1.41769
570.5000	1.42006
570.4750	1.42027
570.4500	1.42058
570.4250	1.4173
570.4000	1.41941
570.3750	1.41748
570.3500	1.41872
570.3250	1.4175
570.3000	1.41538
570.2750	1.4185
570.2500	1.42088
570.2250	1.42185
570.2000	1.42389
570.1750	1.42095
570.1500	1.42147
570.1250	1.42181
570.1000	1.41811
570.0750	1.41616
570.0500	1.4142
570.0250	1.4117
570.0000	1.40968
569.9750	1.40873
569.9500	1.40992
569.9250	1.41034
569.9000	1.40707
569.8750	1.40845
569.8500	1.41152
569.8250	1.41114
569.8000	1.41196
569.7750	1.41163
569.7500	1.41125
569.7250	1.41285
569.7000	1.41513
569.6750	1.41499
569.6500	1.41184
569.6250	1.41215
569.6000	1.41134
569.5750	1.41115
569.5500	1.40914
569.5250	1.40666
569.5000	1.40861
569.4750	1.4067
569.4500	1.40512
569.4250	1.40608
569.4000	1.40601
569.3750	1.4077
569.3500	1.40761
569.3250	1.40455
569.3000	1.40407
569.2750	1.40574
569.2500	1.40785
569.2250	1.40462
569.2000	1.4022
569.1750	1.40002
569.1500	1.40082
569.1250	1.3968
569.1000	1.39395
569.0750	1.39369
569.0500	1.39297
569.0250	1.39279
569.0000	1.3947
568.9750	1.39397
568.9500	1.39611
568.9250	1.39802
568.9000	1.39788
568.8750	1.40028
568.8500	1.39715
568.8250	1.39904
568.8000	1.39802
568.7750	1.39671
568.7500	1.3957
568.7250	1.39651
568.7000	1.39874
568.6750	1.39993
568.6500	1.4032
568.6250	1.40568
568.6000	1.40931
568.5750	1.411
568.5500	1.40962
568.5250	1.40989
568.5000	1.41143
568.4750	1.4081
568.4500	1.40993
568.4250	1.40873
568.4000	1.4065
568.3750	1.40649
568.3500	1.40636
568.3250	1.40832
568.3000	1.40467
568.2750	1.40365
568.2500	1.4049
568.2250	1.40521
568.2000	1.40513
568.1750	1.40726
568.1500	1.40678
568.1250	1.4044
568.1000	1.40488
568.0750	1.40474
568.0500	1.4038
568.0250	1.4021
568.0000	1.39978
567.9750	1.40199
567.9500	1.40342
567.9250	1.4038
567.9000	1.40465
567.8750	1.40896
567.8500	1.41096
567.8250	1.41327
567.8000	1.41379
567.7750	1.41642
567.7500	1.41595
567.7250	1.41569
567.7000	1.41303
567.6750	1.41331
567.6500	1.41183
567.6250	1.409
567.6000	1.40736
567.5750	1.40987
567.5500	1.41175
567.5250	1.41243
567.5000	1.41241
567.4750	1.41249
567.4500	1.41436
567.4250	1.41154
567.4000	1.40718
567.3750	1.40701
567.3500	1.40501
567.3250	1.40543
567.3000	1.40341
567.2750	1.40452
567.2500	1.40598
567.2250	1.40468
567.2000	1.40732
567.1750	1.41013
567.1500	1.41342
567.1250	1.41347
567.1000	1.41475
567.0750	1.41173
567.0500	1.41106
567.0250	1.40987
567.0000	1.40456
566.9750	1.40785
566.9500	1.40242
566.9250	1.40282
566.9000	1.40368
566.8750	1.40197
566.8500	1.40139
566.8250	1.39981
566.8000	1.39869
566.7750	1.39663
566.7500	1.39903
566.7250	1.39712
566.7000	1.39632
566.6750	1.39818
566.6500	1.39678
566.6250	1.40127
566.6000	1.39866
566.5750	1.39838
566.5500	1.39617
566.5250	1.39609
566.5000	1.39718
566.4750	1.39592
566.4500	1.39654
566.4250	1.39552
566.4000	1.39672
566.3750	1.39525
566.3500	1.39184
566.3250	1.38867
566.3000	1.39064
566.2750	1.39028
566.2500	1.38869
566.2250	1.38987
566.2000	1.3911
566.1750	1.39196
566.1500	1.38808
566.1250	1.38629
566.1000	1.38902
566.0750	1.385
566.0500	1.38034
566.0250	1.37921
566.0000	1.37755
565.9750	1.37525
565.9500	1.37272
565.9250	1.37065
565.9000	1.37117
565.8750	1.37214
565.8500	1.37283
565.8250	1.37488
565.8000	1.37424
565.7750	1.37692
565.7500	1.37837
565.7250	1.38151
565.7000	1.38426
565.6750	1.3866
565.6500	1.39129
565.6250	1.3962
565.6000	1.39796
565.5750	1.39703
565.5500	1.39673
565.5250	1.39178
565.5000	1.39268
565.4750	1.38836
565.4500	1.3867
565.4250	1.38963
565.4000	1.39202
565.3750	1.39269
565.3500	1.3896
565.3250	1.39229
565.3000	1.3928
565.2750	1.39263
565.2500	1.39301
565.2250	1.39387
565.2000	1.39477
565.1750	1.39479
565.1500	1.39302
565.1250	1.39271
565.1000	1.39207
565.0750	1.3911
565.0500	1.38698
565.0250	1.38408
565.0000	1.38012
564.9750	1.38002
564.9500	1.37893
564.9250	1.37832
564.9000	1.37988
564.8750	1.38309
564.8500	1.3848
564.8250	1.38921
564.8000	1.39003
564.7750	1.39412
564.7500	1.39499
564.7250	1.39788
564.7000	1.39812
564.6750	1.39922
564.6500	1.39831
564.6250	1.39801
564.6000	1.39854
564.5750	1.39636
564.5500	1.39765
564.5250	1.39815
564.5000	1.39828
564.4750	1.40066
564.4500	1.4003
564.4250	1.4055
564.4000	1.40663
564.3750	1.40297
564.3500	1.40378
564.3250	1.40178
564.3000	1.40418
564.2750	1.40012
564.2500	1.39625
564.2250	1.39572
564.2000	1.39506
564.1750	1.3941
564.1500	1.39205
564.1250	1.38912
564.1000	1.38677
564.0750	1.38866
564.0500	1.3879
564.0250	1.38507
564.0000	1.3855
563.9750	1.38572
563.9500	1.38711
563.9250	1.3877
563.9000	1.38631
563.8750	1.38711
563.8500	1.38722
563.8250	1.38766
563.8000	1.38706
563.7750	1.38788
563.7500	1.38725
563.7250	1.38784
563.7000	1.38887
563.6750	1.39309
563.6500	1.38939
563.6250	1.38883
563.6000	1.38642
563.5750	1.3864
563.5500	1.38461
563.5250	1.38045
563.5000	1.38053
563.4750	1.38434
563.4500	1.38401
563.4250	1.38242
563.4000	1.3828
563.3750	1.38449
563.3500	1.38771
563.3250	1.38577
563.3000	1.38592
563.2750	1.38778
563.2500	1.38801
563.2250	1.38495
563.2000	1.38313
563.1750	1.38277
563.1500	1.37903
563.1250	1.37717
563.1000	1.37621
563.0750	1.37631
563.0500	1.37403
563.0250	1.37341
563.0000	1.37135
562.9750	1.3718
562.9500	1.37071
562.9250	1.37326
562.9000	1.37408
562.8750	1.37581
562.8500	1.37886
562.8250	1.38253
562.8000	1.3868
562.7750	1.38972
562.7500	1.3891
562.7250	1.39233
562.7000	1.391
562.6750	1.39168
562.6500	1.39045
562.6250	1.38873
562.6000	1.39029
562.5750	1.39078
562.5500	1.39335
562.5250	1.39157
562.5000	1.39213
562.4750	1.39291
562.4500	1.38774
562.4250	1.38661
562.4000	1.38527
562.3750	1.384
562.3500	1.38184
562.3250	1.38188
562.3000	1.38381
562.2750	1.38574
562.2500	1.38792
562.2250	1.38803
562.2000	1.38821
562.1750	1.38923
562.1500	1.38896
562.1250	1.38687
562.1000	1.38549
562.0750	1.38304
562.0500	1.38241
562.0250	1.3832
562.0000	1.38162
561.9750	1.38035
561.9500	1.37903
561.9250	1.37882
561.9000	1.37957
561.8750	1.38031
561.8500	1.38334
561.8250	1.3882
561.8000	1.3939
561.7750	1.39827
561.7500	1.39939
561.7250	1.40073
561.7000	1.40353
561.6750	1.40399
561.6500	1.404
561.6250	1.40296
561.6000	1.40683
561.5750	1.40938
561.5500	1.4072
561.5250	1.40193
561.5000	1.40079
561.4750	1.39621
561.4500	1.39291
561.4250	1.39194
561.4000	1.39226
561.3750	1.39173
561.3500	1.39013
561.3250	1.39059
561.3000	1.39476
561.2750	1.39306
561.2500	1.39165
561.2250	1.39053
561.2000	1.39
561.1750	1.3898
561.1500	1.38732
561.1250	1.38798
561.1000	1.38612
561.0750	1.38712
561.0500	1.39063
561.0250	1.39092
561.0000	1.38975
560.9750	1.38866
560.9500	1.39058
560.9250	1.39157
560.9000	1.38862
560.8750	1.39008
560.8500	1.38674
560.8250	1.38714
560.8000	1.38629
560.7750	1.38436
560.7500	1.38242
560.7250	1.38135
560.7000	1.37908
560.6750	1.37923
560.6500	1.37997
560.6250	1.37781
560.6000	1.37704
560.5750	1.37658
560.5500	1.3777
560.5250	1.37876
560.5000	1.37911
560.4750	1.37702
560.4500	1.37614
560.4250	1.3777
560.4000	1.3787
560.3750	1.37924
560.3500	1.38164
560.3250	1.38286
560.3000	1.38524
560.2750	1.38469
560.2500	1.38358
560.2250	1.38221
560.2000	1.37851
560.1750	1.37831
560.1500	1.37677
560.1250	1.37487
560.1000	1.37678
560.0750	1.379
560.0500	1.38315
560.0250	1.38485
560.0000	1.38546
559.9750	1.38907
559.9500	1.38972
559.9250	1.3888
559.9000	1.39087
559.8750	1.39368
559.8500	1.39352
559.8250	1.39435
559.8000	1.39383
559.7750	1.39136
559.7500	1.38524
559.7250	1.3854
559.7000	1.38147
559.6750	1.38081
559.6500	1.37973
559.6250	1.38199
559.6000	1.3812
559.5750	1.38285
559.5500	1.38109
559.5250	1.38167
559.5000	1.3818
559.4750	1.37951
559.4500	1.38115
559.4250	1.38212
559.4000	1.38267
559.3750	1.38265
559.3500	1.38328
559.3250	1.38286
559.3000	1.38047
559.2750	1.3768
559.2500	1.37845
559.2250	1.37833
559.2000	1.3772
559.1750	1.37303
559.1500	1.374
559.1250	1.37709
559.1000	1.37526
559.0750	1.37244
559.0500	1.3748
559.0250	1.3742
559.0000	1.37685
558.9750	1.37948
558.9500	1.38103
558.9250	1.38341
558.9000	1.38276
558.8750	1.38616
558.8500	1.38657
558.8250	1.38935
558.8000	1.39012
558.7750	1.39415
558.7500	1.39598
558.7250	1.39698
558.7000	1.39712
558.6750	1.39559
558.6500	1.39434
558.6250	1.39403
558.6000	1.39299
558.5750	1.39423
558.5500	1.39224
558.5250	1.3939
558.5000	1.39612
558.4750	1.39562
558.4500	1.3934
558.4250	1.39158
558.4000	1.39375
558.3750	1.39345
558.3500	1.38825
558.3250	1.3866
558.3000	1.38772
558.2750	1.38486
558.2500	1.38309
558.2250	1.37979
558.2000	1.38103
558.1750	1.38095
558.1500	1.37915
558.1250	1.38083
558.1000	1.3803
558.0750	1.38143
558.0500	1.38208
558.0250	1.38227
558.0000	1.38484
557.9750	1.38252
557.9500	1.38337
557.9250	1.38246
557.9000	1.3824
557.8750	1.37936
557.8500	1.38058
557.8250	1.38003
557.8000	1.38072
557.7750	1.37793
557.7500	1.37924
557.7250	1.37712
557.7000	1.37604
557.6750	1.37765
557.6500	1.37145
557.6250	1.37331
557.6000	1.37187
557.5750	1.37099
557.5500	1.3686
557.5250	1.36817
557.5000	1.3691
557.4750	1.37088
557.4500	1.36965
557.4250	1.37489
557.4000	1.37624
557.3750	1.38148
557.3500	1.38237
557.3250	1.38425
557.3000	1.38501
557.2750	1.3838
557.2500	1.3833
557.2250	1.38035
557.2000	1.37833
557.1750	1.37739
557.1500	1.37425
557.1250	1.37393
557.1000	1.37181
557.0750	1.37393
557.0500	1.37361
557.0250	1.37459
557.0000	1.37515
556.9750	1.37669
556.9500	1.37794
556.9250	1.377
556.9000	1.37554
556.8750	1.37672
556.8500	1.37514
556.8250	1.37477
556.8000	1.37481
556.7750	1.3753
556.7500	1.37626
556.7250	1.37418
556.7000	1.37211
556.6750	1.37136
556.6500	1.36833
556.6250	1.36556
556.6000	1.3626
556.5750	1.36214
556.5500	1.36213
556.5250	1.35848
556.5000	1.35885
556.4750	1.35749
556.4500	1.36031
556.4250	1.35753
556.4000	1.35601
556.3750	1.35461
556.3500	1.35369
556.3250	1.35694
556.3000	1.34982
556.2750	1.35292
556.2500	1.35635
556.2250	1.35851
556.2000	1.36291
556.1750	1.36534
556.1500	1.36996
556.1250	1.37379
556.1000	1.3761
556.0750	1.37806
556.0500	1.38228
556.0250	1.38314
556.0000	1.38515
555.9750	1.38539
555.9500	1.38515
555.9250	1.38352
555.9000	1.38321
555.8750	1.38119
555.8500	1.3831
555.8250	1.38161
555.8000	1.38002
555.7750	1.38121
555.7500	1.37605
555.7250	1.37789
555.7000	1.37761
555.6750	1.37441
555.6500	1.37397
555.6250	1.37368
555.6000	1.37478
555.5750	1.37404
555.5500	1.37413
555.5250	1.37149
555.5000	1.37292
555.4750	1.37195
555.4500	1.37098
555.4250	1.36894
555.4000	1.37111
555.3750	1.37327
555.3500	1.37242
555.3250	1.37166
555.3000	1.37117
555.2750	1.37121
555.2500	1.36966
555.2250	1.3643
555.2000	1.36461
555.1750	1.3659
555.1500	1.36683
555.1250	1.36556
555.1000	1.36286
555.0750	1.36262
555.0500	1.36616
555.0250	1.36471
555.0000	1.36168
554.9750	1.36227
554.9500	1.36404
554.9250	1.36343
554.9000	1.36361
554.8750	1.36415
554.8500	1.36408
554.8250	1.36577
554.8000	1.37022
554.7750	1.37101
554.7500	1.37341
554.7250	1.37448
554.7000	1.37224
554.6750	1.37371
554.6500	1.37165
554.6250	1.37135
554.6000	1.36963
554.5750	1.36894
554.5500	1.36724
554.5250	1.36942
554.5000	1.36713
554.4750	1.36906
554.4500	1.36779
554.4250	1.36596
554.4000	1.3627
554.3750	1.3613
554.3500	1.36043
554.3250	1.36059
554.3000	1.35996
554.2750	1.35908
554.2500	1.36018
554.2250	1.36007
554.2000	1.36097
554.1750	1.36098
554.1500	1.35837
554.1250	1.35922
554.1000	1.35841
554.0750	1.36014
554.0500	1.36051
554.0250	1.36154
554.0000	1.36105
553.9750	1.36246
553.9500	1.36282
553.9250	1.35828
553.9000	1.36033
553.8750	1.35965
553.8500	1.35854
553.8250	1.35785
553.8000	1.35888
553.7750	1.35588
553.7500	1.35275
553.7250	1.34992
553.7000	1.34914
553.6750	1.35012
553.6500	1.34751
553.6250	1.34786
553.6000	1.34615
553.5750	1.348
553.5500	1.34626
553.5250	1.34884
553.5000	1.35309
553.4750	1.35616
553.4500	1.3614
553.4250	1.36777
553.4000	1.37087
553.3750	1.37595
553.3500	1.37623
553.3250	1.37768
553.3000	1.37781
553.2750	1.3778
553.2500	1.37798
553.2250	1.38046
553.2000	1.38141
553.1750	1.38047
553.1500	1.37974
553.1250	1.37917
553.1000	1.37965
553.0750	1.38045
553.0500	1.3762
553.0250	1.37665
553.0000	1.37478
552.9750	1.37656
552.9500	1.37376
552.9250	1.37402
552.9000	1.37452
552.8750	1.37374
552.8500	1.37528
552.8250	1.37431
552.8000	1.37821
552.7750	1.3759
552.7500	1.37514
552.7250	1.37476
552.7000	1.3753
552.6750	1.37602
552.6500	1.37233
552.6250	1.37301
552.6000	1.36851
552.5750	1.36712
552.5500	1.36389
552.5250	1.36512
552.5000	1.36445
552.4750	1.36401
552.4500	1.36319
552.4250	1.36782
552.4000	1.36973
552.3750	1.36987
552.3500	1.36913
552.3250	1.37093
552.3000	1.3736
552.2750	1.37356
552.2500	1.37184
552.2250	1.37082
552.2000	1.37076
552.1750	1.36833
552.1500	1.367
552.1250	1.36852
552.1000	1.36874
552.0750	1.36827
552.0500	1.36931
552.0250	1.3682
552.0000	1.36646
551.9750	1.36499
551.9500	1.36412
551.9250	1.36566
551.9000	1.36542
551.8750	1.36803
551.8500	1.3668
551.8250	1.3677
551.8000	1.36554
551.7750	1.36375
551.7500	1.36209
551.7250	1.36216
551.7000	1.36405
551.6750	1.36347
551.6500	1.36419
551.6250	1.36676
551.6000	1.36783
551.5750	1.36477
551.5500	1.36702
551.5250	1.36608
551.5000	1.36443
551.4750	1.36235
551.4500	1.36208
551.4250	1.36143
551.4000	1.35918
551.3750	1.35729
551.3500	1.35316
551.3250	1.353
551.3000	1.35265
551.2750	1.35065
551.2500	1.34988
551.2250	1.34982
551.2000	1.34997
551.1750	1.35173
551.1500	1.35225
551.1250	1.35092
551.1000	1.35024
551.0750	1.34934
551.0500	1.34919
551.0250	1.34908
551.0000	1.34636
550.9750	1.3426
550.9500	1.34251
550.9250	1.34745
550.9000	1.3453
550.8750	1.34885
550.8500	1.35383
550.8250	1.35896
550.8000	1.36425
550.7750	1.36656
550.7500	1.3683
550.7250	1.3715
550.7000	1.37015
550.6750	1.3731
550.6500	1.37443
550.6250	1.37546
550.6000	1.37489
550.5750	1.37631
550.5500	1.37581
550.5250	1.37829
550.5000	1.37715
550.4750	1.37609
550.4500	1.37581
550.4250	1.37317
550.4000	1.3736
550.3750	1.3694
550.3500	1.36789
550.3250	1.36732
550.3000	1.3674
550.2750	1.36825
550.2500	1.36965
550.2250	1.36744
550.2000	1.36722
550.1750	1.36685
550.1500	1.36758
550.1250	1.36711
550.1000	1.36579
550.0750	1.36379
550.0500	1.36441
550.0250	1.36768
550.0000	1.36664
549.9750	1.36621
549.9500	1.3659
549.9250	1.36752
549.9000	1.36807
549.8750	1.36888
549.8500	1.36879
549.8250	1.37036
549.8000	1.37075
549.7750	1.37256
549.7500	1.3735
549.7250	1.37014
549.7000	1.37122
549.6750	1.37222
549.6500	1.37062
549.6250	1.36848
549.6000	1.3671
549.5750	1.36716
549.5500	1.36692
549.5250	1.36529
549.5000	1.36515
549.4750	1.36433
549.4500	1.36458
549.4250	1.36327
549.4000	1.36141
549.3750	1.36093
549.3500	1.36051
549.3250	1.36282
549.3000	1.36303
549.2750	1.36278
549.2500	1.36068
549.2250	1.3615
549.2000	1.3601
549.1750	1.35817
549.1500	1.3584
549.1250	1.35586
549.1000	1.3536
549.0750	1.35216
549.0500	1.35231
549.0250	1.35356
549.0000	1.35219
548.9750	1.35248
548.9500	1.35028
548.9250	1.35018
548.9000	1.34637
548.8750	1.34385
548.8500	1.34245
548.8250	1.33969
548.8000	1.33824
548.7750	1.34133
548.7500	1.34074
548.7250	1.33987
548.7000	1.34192
548.6750	1.34203
548.6500	1.34154
548.6250	1.33843
548.6000	1.34063
548.5750	1.33861
548.5500	1.33601
548.5250	1.33336
548.5000	1.33452
548.4750	1.33631
548.4500	1.33578
548.4250	1.33753
548.4000	1.33715
548.3750	1.33605
548.3500	1.33689
548.3250	1.33403
548.3000	1.33812
548.2750	1.33986
548.2500	1.34669
548.2250	1.35533
548.2000	1.36131
548.1750	1.36425
548.1500	1.3683
548.1250	1.36899
548.1000	1.36572
548.0750	1.36619
548.0500	1.36499
548.0250	1.36344
548.0000	1.36273
547.9750	1.36156
547.9500	1.35873
547.9250	1.35754
547.9000	1.355
547.8750	1.35391
547.8500	1.35313
547.8250	1.35438
547.8000	1.35481
547.7750	1.35352
547.7500	1.35365
547.7250	1.35561
547.7000	1.35376
547.6750	1.35138
547.6500	1.35054
547.6250	1.3516
547.6000	1.35052
547.5750	1.34847
547.5500	1.35073
547.5250	1.35238
547.5000	1.34975
547.4750	1.35187
547.4500	1.35221
547.4250	1.3529
547.4000	1.35346
547.3750	1.35497
547.3500	1.35455
547.3250	1.35575
547.3000	1.35592
547.2750	1.35819
547.2500	1.36061
547.2250	1.35667
547.2000	1.35636
547.1750	1.35638
547.1500	1.35516
547.1250	1.35439
547.1000	1.35491
547.0750	1.35395
547.0500	1.35408
547.0250	1.35309
547.0000	1.35156
546.9750	1.35425
546.9500	1.355
546.9250	1.356
546.9000	1.35622
546.8750	1.35502
546.8500	1.3559
546.8250	1.35418
546.8000	1.35094
546.7750	1.34891
546.7500	1.34872
546.7250	1.34714
546.7000	1.34457
546.6750	1.34126
546.6500	1.34095
546.6250	1.34165
546.6000	1.33842
546.5750	1.33665
546.5500	1.33758
546.5250	1.33913
546.5000	1.34146
546.4750	1.33851
546.4500	1.33648
546.4250	1.3363
546.4000	1.33668
546.3750	1.33613
546.3500	1.33394
546.3250	1.33355
546.3000	1.33458
546.2750	1.33228
546.2500	1.3334
546.2250	1.33048
546.2000	1.32932
546.1750	1.33097
546.1500	1.32848
546.1250	1.33002
546.1000	1.32849
546.0750	1.32619
546.0500	1.32465
546.0250	1.32377
546.0000	1.32138
545.9750	1.32312
545.9500	1.32149
545.9250	1.32178
545.9000	1.32295
545.8750	1.32506
545.8500	1.3277
545.8250	1.33166
545.8000	1.33849
545.7750	1.34525
545.7500	1.34948
545.7250	1.35173
545.7000	1.35612
545.6750	1.35724
545.6500	1.35634
545.6250	1.35288
545.6000	1.354
545.5750	1.35433
545.5500	1.35334
545.5250	1.35327
545.5000	1.35371
545.4750	1.35406
545.4500	1.3517
545.4250	1.35247
545.4000	1.35235
545.3750	1.35235
545.3500	1.35233
545.3250	1.35045
545.3000	1.35166
545.2750	1.35466
545.2500	1.35485
545.2250	1.35316
545.2000	1.35387
545.1750	1.35776
545.1500	1.35903
545.1250	1.35721
545.1000	1.35563
545.0750	1.35408
545.0500	1.35528
545.0250	1.35593
545.0000	1.35642
544.9750	1.35728
544.9500	1.35637
544.9250	1.35666
544.9000	1.35547
544.8750	1.35468
544.8500	1.3511
544.8250	1.35125
544.8000	1.34883
544.7750	1.35283
544.7500	1.35261
544.7250	1.35042
544.7000	1.34797
544.6750	1.34972
544.6500	1.34746
544.6250	1.34652
544.6000	1.34123
544.5750	1.34311
544.5500	1.34177
544.5250	1.34086
544.5000	1.33945
544.4750	1.33684
544.4500	1.33754
544.4250	1.33899
544.4000	1.34004
544.3750	1.33775
544.3500	1.33532
544.3250	1.33775
544.3000	1.34035
544.2750	1.3382
544.2500	1.33949
544.2250	1.33968
544.2000	1.34175
544.1750	1.34142
544.1500	1.34078
544.1250	1.33831
544.1000	1.33497
544.0750	1.33447
544.0500	1.33372
544.0250	1.33293
544.0000	1.33394
543.9750	1.33363
543.9500	1.3327
543.9250	1.33459
543.9000	1.33388
543.8750	1.33414
543.8500	1.33564
543.8250	1.33469
543.8000	1.33369
543.7750	1.33219
543.7500	1.33112
543.7250	1.33057
543.7000	1.3299
543.6750	1.32809
543.6500	1.32921
543.6250	1.32529
543.6000	1.32524
543.5750	1.32275
543.5500	1.31968
543.5250	1.31993
543.5000	1.32329
543.4750	1.32674
543.4500	1.33301
543.4250	1.34148
543.4000	1.34478
543.3750	1.35185
543.3500	1.3562
543.3250	1.3578
543.3000	1.35701
543.2750	1.35813
543.2500	1.35846
543.2250	1.35521
543.2000	1.35471
543.1750	1.35496
543.1500	1.35624
543.1250	1.3542
543.1000	1.35673
543.0750	1.35765
543.0500	1.36056
543.0250	1.35958
543.0000	1.35791
542.9750	1.35795
542.9500	1.35584
542.9250	1.35427
542.9000	1.35165
542.8750	1.351
542.8500	1.35004
542.8250	1.35035
542.8000	1.35052
542.7750	1.35205
542.7500	1.35189
542.7250	1.35063
542.7000	1.35097
542.6750	1.35512
542.6500	1.35351
542.6250	1.35274
542.6000	1.35394
542.5750	1.35384
542.5500	1.35255
542.5250	1.35042
542.5000	1.34867
542.4750	1.3467
542.4500	1.34549
542.4250	1.34608
542.4000	1.34782
542.3750	1.34782
542.3500	1.3467
542.3250	1.34722
542.3000	1.34761
542.2750	1.34578
542.2500	1.34399
542.2250	1.34353
542.2000	1.34489
542.1750	1.34511
542.1500	1.34191
542.1250	1.34252
542.1000	1.34395
542.0750	1.34785
542.0500	1.34627
542.0250	1.34528
542.0000	1.34467
541.9750	1.34136
541.9500	1.34234
541.9250	1.34044
541.9000	1.34136
541.8750	1.34107
541.8500	1.34008
541.8250	1.34064
541.8000	1.33933
541.7750	1.33798
541.7500	1.3339
541.7250	1.32927
541.7000	1.32888
541.6750	1.32997
541.6500	1.3311
541.6250	1.32974
541.6000	1.32902
541.5750	1.33068
541.5500	1.32912
541.5250	1.32213
541.5000	1.32094
541.4750	1.31632
541.4500	1.31924
541.4250	1.31694
541.4000	1.31628
541.3750	1.31727
541.3500	1.31671
541.3250	1.31689
541.3000	1.31765
541.2750	1.32083
541.2500	1.32432
541.2250	1.32758
541.2000	1.33366
541.1750	1.34081
541.1500	1.34456
541.1250	1.35109
541.1000	1.35184
541.0750	1.35283
541.0500	1.35489
541.0250	1.35172
541.0000	1.35501
540.9750	1.35349
540.9500	1.35462
540.9250	1.35636
540.9000	1.35526
540.8750	1.35623
540.8500	1.35512
540.8250	1.35216
540.8000	1.35365
540.7750	1.356
540.7500	1.35674
540.7250	1.35522
540.7000	1.35592
540.6750	1.3523
540.6500	1.35221
540.6250	1.34712
540.6000	1.34409
540.5750	1.34367
540.5500	1.34211
540.5250	1.34463
540.5000	1.34644
540.4750	1.34875
540.4500	1.35029
540.4250	1.35134
540.4000	1.35097
540.3750	1.34917
540.3500	1.34799
540.3250	1.34519
540.3000	1.34456
540.2750	1.34365
540.2500	1.3421
540.2250	1.34422
540.2000	1.34601
540.1750	1.34326
540.1500	1.34322
540.1250	1.34012
540.1000	1.33834
540.0750	1.33688
540.0500	1.33292
540.0250	1.33121
540.0000	1.32916
539.9750	1.33109
539.9500	1.33098
539.9250	1.33031
539.9000	1.32829
539.8750	1.32874
539.8500	1.32949
539.8250	1.32802
539.8000	1.32822
539.7750	1.32619
539.7500	1.32468
539.7250	1.32404
539.7000	1.32351
539.6750	1.32094
539.6500	1.3211
539.6250	1.32249
539.6000	1.32083
539.5750	1.32119
539.5500	1.32033
539.5250	1.31822
539.5000	1.32047
539.4750	1.32023
539.4500	1.31567
539.4250	1.31767
539.4000	1.31699
539.3750	1.31909
539.3500	1.31575
539.3250	1.31686
539.3000	1.31413
539.2750	1.31003
539.2500	1.30795
539.2250	1.30659
539.2000	1.30979
539.1750	1.30638
539.1500	1.30689
539.1250	1.30964
539.1000	1.3101
539.0750	1.3116
539.0500	1.30931
539.0250	1.30882
539.0000	1.31401
538.9750	1.32108
538.9500	1.32907
538.9250	1.33551
538.9000	1.34369
538.8750	1.34781
538.8500	1.34983
538.8250	1.34811
538.8000	1.34694
538.7750	1.34631
538.7500	1.34288
538.7250	1.34214
538.7000	1.34055
538.6750	1.33902
538.6500	1.34122
538.6250	1.33907
538.6000	1.3383
538.5750	1.33576
538.5500	1.332
538.5250	1.3336
538.5000	1.3334
538.4750	1.33488
538.4500	1.33726
538.4250	1.33678
538.4000	1.33932
538.3750	1.33707
538.3500	1.33979
538.3250	1.34003
538.3000	1.33574
538.2750	1.33771
538.2500	1.33685
538.2250	1.33717
538.2000	1.33632
538.1750	1.33448
538.1500	1.33638
538.1250	1.33517
538.1000	1.33398
538.0750	1.33323
538.0500	1.33289
538.0250	1.33248
538.0000	1.33225
537.9750	1.32838
537.9500	1.3297
537.9250	1.32837
537.9000	1.32908
537.8750	1.32818
537.8500	1.32784
537.8250	1.32699
537.8000	1.32413
537.7750	1.3239
537.7500	1.32335
537.7250	1.324
537.7000	1.32295
537.6750	1.32411
537.6500	1.325
537.6250	1.32266
537.6000	1.32377
537.5750	1.32296
537.5500	1.32139
537.5250	1.31933
537.5000	1.31836
537.4750	1.32144
537.4500	1.32165
537.4250	1.32099
537.4000	1.31986
537.3750	1.32111
537.3500	1.32007
537.3250	1.31824
537.3000	1.31852
537.2750	1.31804
537.2500	1.31681
537.2250	1.31589
537.2000	1.31561
537.1750	1.31285
537.1500	1.31228
537.1250	1.31044
537.1000	1.31203
537.0750	1.31005
537.0500	1.30679
537.0250	1.3065
537.0000	1.30568
536.9750	1.30342
536.9500	1.30293
536.9250	1.30514
536.9000	1.3088
536.8750	1.31088
536.8500	1.31784
536.8250	1.32303
536.8000	1.32804
536.7750	1.3305
536.7500	1.33327
536.7250	1.33494
536.7000	1.33616
536.6750	1.3357
536.6500	1.3355
536.6250	1.33705
536.6000	1.33743
536.5750	1.33982
536.5500	1.33993
536.5250	1.34136
536.5000	1.3414
536.4750	1.33971
536.4500	1.34126
536.4250	1.33985
536.4000	1.3382
536.3750	1.33676
536.3500	1.33572
536.3250	1.33531
536.3000	1.3369
536.2750	1.33258
536.2500	1.33533
536.2250	1.33217
536.2000	1.33085
536.1750	1.33404
536.1500	1.33373
536.1250	1.33417
536.1000	1.33486
536.0750	1.33231
536.0500	1.33264
536.0250	1.33207
536.0000	1.33343
535.9750	1.33171
535.9500	1.33155
535.9250	1.33258
535.9000	1.33671
535.8750	1.33453
535.8500	1.33378
535.8250	1.33258
535.8000	1.3318
535.7750	1.33438
535.7500	1.33098
535.7250	1.329
535.7000	1.33063
535.6750	1.33091
535.6500	1.33273
535.6250	1.32949
535.6000	1.32817
535.5750	1.32624
535.5500	1.32672
535.5250	1.32512
535.5000	1.32168
535.4750	1.32004
535.4500	1.31656
535.4250	1.3157
535.4000	1.31648
535.3750	1.31478
535.3500	1.31507
535.3250	1.31419
535.3000	1.31367
535.2750	1.31525
535.2500	1.31608
535.2250	1.31689
535.2000	1.3136
535.1750	1.31265
535.1500	1.31002
535.1250	1.31163
535.1000	1.30985
535.0750	1.30743
535.0500	1.30686
535.0250	1.30899
535.0000	1.31081
534.9750	1.30686
534.9500	1.30676
534.9250	1.30697
534.9000	1.3086
534.8750	1.31488
534.8500	1.31953
534.8250	1.32183
534.8000	1.32853
534.7750	1.33529
534.7500	1.33794
534.7250	1.33986
534.7000	1.33956
534.6750	1.34381
534.6500	1.34574
534.6250	1.34549
534.6000	1.34255
534.5750	1.34211
534.5500	1.34083
534.5250	1.34043
534.5000	1.34073
534.4750	1.34028
534.4500	1.34317
534.4250	1.34311
534.4000	1.34346
534.3750	1.34268
534.3500	1.33959
534.3250	1.34079
534.3000	1.33697
534.2750	1.33415
534.2500	1.33479
534.2250	1.33511
534.2000	1.33295
534.1750	1.32983
534.1500	1.33019
534.1250	1.33151
534.1000	1.33225
534.0750	1.32999
534.0500	1.33261
534.0250	1.33117
534.0000	1.3312
533.9750	1.33063
533.9500	1.33069
533.9250	1.32754
533.9000	1.32502
533.8750	1.32669
533.8500	1.32803
533.8250	1.32728
533.8000	1.32995
533.7750	1.32912
533.7500	1.32999
533.7250	1.32918
533.7000	1.32933
533.6750	1.32788
533.6500	1.32625
533.6250	1.32616
533.6000	1.32508
533.5750	1.32786
533.5500	1.32706
533.5250	1.32477
533.5000	1.32476
533.4750	1.32489
533.4500	1.32098
533.4250	1.32229
533.4000	1.31907
533.3750	1.31724
533.3500	1.31662
533.3250	1.31449
533.3000	1.31471
533.2750	1.31212
533.2500	1.31329
533.2250	1.31358
533.2000	1.31155
533.1750	1.30916
533.1500	1.30981
533.1250	1.31103
533.1000	1.3083
533.0750	1.30816
533.0500	1.30986
533.0250	1.30813
533.0000	1.30749
532.9750	1.30654
532.9500	1.30587
532.9250	1.30459
532.9000	1.30772
532.8750	1.31358
532.8500	1.32106
532.8250	1.32629
532.8000	1.33127
532.7750	1.33667
532.7500	1.34192
532.7250	1.3415
532.7000	1.33954
532.6750	1.33972
532.6500	1.33873
532.6250	1.33772
532.6000	1.33535
532.5750	1.3341
532.5500	1.33533
532.5250	1.33447
532.5000	1.33542
532.4750	1.33606
532.4500	1.33679
532.4250	1.33738
532.4000	1.33661
532.3750	1.33425
532.3500	1.33424
532.3250	1.33539
532.3000	1.33518
532.2750	1.3365
532.2500	1.33503
532.2250	1.3321
532.2000	1.3325
532.1750	1.33097
532.1500	1.32949
532.1250	1.32475
532.1000	1.32383
532.0750	1.32367
532.0500	1.32345
532.0250	1.32279
532.0000	1.32316
531.9750	1.32066
531.9500	1.31959
531.9250	1.3199
531.9000	1.31886
531.8750	1.31829
531.8500	1.31768
531.8250	1.31377
531.8000	1.3183
531.7750	1.3186
531.7500	1.31565
531.7250	1.31535
531.7000	1.31637
531.6750	1.31523
531.6500	1.31431
531.6250	1.31084
531.6000	1.30906
531.5750	1.30689
531.5500	1.30532
531.5250	1.30589
531.5000	1.30668
531.4750	1.30717
531.4500	1.30766
531.4250	1.30713
531.4000	1.30955
531.3750	1.30785
531.3500	1.30551
531.3250	1.30447
531.3000	1.30436
531.2750	1.30337
531.2500	1.30368
531.2250	1.30144
531.2000	1.30073
531.1750	1.29951
531.1500	1.29772
531.1250	1.29636
531.1000	1.29556
531.0750	1.29854
531.0500	1.29811
531.0250	1.30081
531.0000	1.3037
530.9750	1.30907
530.9500	1.31339
530.9250	1.31825
530.9000	1.32125
530.8750	1.32747
530.8500	1.32706
530.8250	1.32666
530.8000	1.32467
530.7750	1.32444
530.7500	1.32462
530.7250	1.32454
530.7000	1.32446
530.6750	1.32562
530.6500	1.32559
530.6250	1.32246
530.6000	1.32226
530.5750	1.32472
530.5500	1.32649
530.5250	1.32443
530.5000	1.32366
530.4750	1.32449
530.4500	1.32561
530.4250	1.31963
530.4000	1.31697
530.3750	1.3193
530.3500	1.31893
530.3250	1.31999
530.3000	1.3202
530.2750	1.32268
530.2500	1.3196
530.2250	1.31827
530.2000	1.31543
530.1750	1.31338
530.1500	1.31238
530.1250	1.3084
530.1000	1.30937
530.0750	1.31001
530.0500	1.30773
530.0250	1.30594
530.0000	1.30772
529.9750	1.31084
529.9500	1.30961
529.9250	1.30909
529.9000	1.30966
529.8750	1.30998
529.8500	1.3087
529.8250	1.30394
529.8000	1.30355
529.7750	1.30153
529.7500	1.30294
529.7250	1.30151
529.7000	1.30172
529.6750	1.30522
529.6500	1.30322
529.6250	1.30083
529.6000	1.30152
529.5750	1.29852
529.5500	1.29936
529.5250	1.29716
529.5000	1.294
529.4750	1.29647
529.4500	1.29443
529.4250	1.29555
529.4000	1.29429
529.3750	1.29258
529.3500	1.29352
529.3250	1.29364
529.3000	1.29326
529.2750	1.29242
529.2500	1.29028
529.2250	1.29365
529.2000	1.29572
529.1750	1.29649
529.1500	1.3006
529.1250	1.30823
529.1000	1.31445
529.0750	1.32055
529.0500	1.32353
529.0250	1.32615
529.0000	1.32563
528.9750	1.32398
528.9500	1.32069
528.9250	1.31985
528.9000	1.31934
528.8750	1.31549
528.8500	1.31526
528.8250	1.31799
528.8000	1.31982
528.7750	1.319
528.7500	1.31729
528.7250	1.3171
528.7000	1.31596
528.6750	1.31557
528.6500	1.31221
528.6250	1.31161
528.6000	1.31167
528.5750	1.31196
528.5500	1.31117
528.5250	1.31377
528.5000	1.31394
528.4750	1.31461
528.4500	1.31542
528.4250	1.31402
528.4000	1.31617
528.3750	1.31422
528.3500	1.31485
528.3250	1.31541
528.3000	1.31266
528.2750	1.31281
528.2500	1.312
528.2250	1.31107
528.2000	1.30967
528.1750	1.31261
528.1500	1.31235
528.1250	1.31143
528.1000	1.31135
528.0750	1.31156
528.0500	1.31122
528.0250	1.30798
528.0000	1.30549
527.9750	1.30287
527.9500	1.29986
527.9250	1.30082
527.9000	1.30207
527.8750	1.30213
527.8500	1.30128
527.8250	1.30397
527.8000	1.30144
527.7750	1.30308
527.7500	1.30161
527.7250	1.30141
527.7000	1.29918
527.6750	1.29639
527.6500	1.29834
527.6250	1.29946
527.6000	1.29648
527.5750	1.29817
527.5500	1.29707
527.5250	1.29611
527.5000	1.29641
527.4750	1.29481
527.4500	1.29719
527.4250	1.29863
527.4000	1.30206
527.3750	1.3098
527.3500	1.31323
527.3250	1.31552
527.3000	1.3183
527.2750	1.321
527.2500	1.32272
527.2250	1.32
527.2000	1.31844
527.1750	1.31991
527.1500	1.32475
527.1250	1.32461
527.1000	1.324
527.0750	1.32419
527.0500	1.3248
527.0250	1.32551
527.0000	1.3215
526.9750	1.31934
526.9500	1.31864
526.9250	1.31778
526.9000	1.31624
526.8750	1.31338
526.8500	1.31259
526.8250	1.31178
526.8000	1.31533
526.7750	1.31722
526.7500	1.31683
526.7250	1.31828
526.7000	1.31718
526.6750	1.31959
526.6500	1.31607
526.6250	1.31105
526.6000	1.31041
526.5750	1.31128
526.5500	1.30796
526.5250	1.30597
526.5000	1.30566
526.4750	1.30535
526.4500	1.3057
526.4250	1.30387
526.4000	1.30733
526.3750	1.30517
526.3500	1.30393
526.3250	1.30457
526.3000	1.303
526.2750	1.30276
526.2500	1.30219
526.2250	1.30064
526.2000	1.29964
526.1750	1.29856
526.1500	1.29959
526.1250	1.299
526.1000	1.29864
526.0750	1.29953
526.0500	1.30396
526.0250	1.30512
526.0000	1.3041
525.9750	1.30347
525.9500	1.30041
525.9250	1.29883
525.9000	1.29777
525.8750	1.29577
525.8500	1.29386
525.8250	1.29337
525.8000	1.29415
525.7750	1.2931
525.7500	1.29632
525.7250	1.29801
525.7000	1.30431
525.6750	1.30985
525.6500	1.31351
525.6250	1.32137
525.6000	1.32489
525.5750	1.32717
525.5500	1.32743
525.5250	1.32458
525.5000	1.32385
525.4750	1.32145
525.4500	1.31818
525.4250	1.3156
525.4000	1.31578
525.3750	1.31699
525.3500	1.31664
525.3250	1.31716
525.3000	1.31679
525.2750	1.31638
525.2500	1.31758
525.2250	1.31665
525.2000	1.31582
525.1750	1.31733
525.1500	1.31652
525.1250	1.31639
525.1000	1.31489
525.0750	1.31402
525.0500	1.31587
525.0250	1.31206
525.0000	1.31237
524.9750	1.3126
524.9500	1.31238
524.9250	1.30948
524.9000	1.30885
524.8750	1.30419
524.8500	1.30412
524.8250	1.30284
524.8000	1.298
524.7750	1.2985
524.7500	1.29922
524.7250	1.30054
524.7000	1.29895
524.6750	1.29974
524.6500	1.2998
524.6250	1.3027
524.6000	1.30099
524.5750	1.2968
524.5500	1.29702
524.5250	1.29973
524.5000	1.29854
524.4750	1.29816
524.4500	1.29765
524.4250	1.2982
524.4000	1.29465
524.3750	1.29447
524.3500	1.29223
524.3250	1.29368
524.3000	1.29227
524.2750	1.29017
524.2500	1.29209
524.2250	1.28868
524.2000	1.29116
524.1750	1.28796
524.1500	1.28976
524.1250	1.29396
524.1000	1.29906
524.0750	1.30352
524.0500	1.30403
524.0250	1.30674
524.0000	1.31182
523.9750	1.31397
523.9500	1.31291
523.9250	1.31104
523.9000	1.31392
523.8750	1.31531
523.8500	1.31203
523.8250	1.309
523.8000	1.30821
523.7750	1.31032
523.7500	1.30897
523.7250	1.30528
523.7000	1.30635
523.6750	1.30296
523.6500	1.30429
523.6250	1.30309
523.6000	1.30179
523.5750	1.30142
523.5500	1.29886
523.5250	1.30392
523.5000	1.30488
523.4750	1.30412
523.4500	1.30166
523.4250	1.30006
523.4000	1.2997
523.3750	1.3008
523.3500	1.29718
523.3250	1.29318
523.3000	1.29671
523.2750	1.29716
523.2500	1.29848
523.2250	1.29767
523.2000	1.29741
523.1750	1.30279
523.1500	1.30029
523.1250	1.30247
523.1000	1.29921
523.0750	1.30171
523.0500	1.29849
523.0250	1.29184
523.0000	1.29026
522.9750	1.28869
522.9500	1.287
522.9250	1.28383
522.9000	1.28268
522.8750	1.28188
522.8500	1.28376
522.8250	1.28427
522.8000	1.28468
522.7750	1.28784
522.7500	1.28752
522.7250	1.28981
522.7000	1.29361
522.6750	1.29476
522.6500	1.29843
522.6250	1.29825
522.6000	1.30017
522.5750	1.30277
522.5500	1.30356
522.5250	1.30303
522.5000	1.30299
522.4750	1.30073
522.4500	1.30313
522.4250	1.30532
522.4000	1.30453
522.3750	1.30777
522.3500	1.3092
522.3250	1.31167
522.3000	1.31029
522.2750	1.31047
522.2500	1.3074
522.2250	1.30645
522.2000	1.30335
522.1750	1.29932
522.1500	1.3013
522.1250	1.30164
522.1000	1.3011
522.0750	1.30185
522.0500	1.30187
522.0250	1.30364
522.0000	1.30527
521.9750	1.30197
521.9500	1.30068
521.9250	1.3002
521.9000	1.29697
521.8750	1.29634
521.8500	1.29529
521.8250	1.29755
521.8000	1.30091
521.7750	1.30095
521.7500	1.29997
521.7250	1.30066
521.7000	1.30125
521.6750	1.29834
521.6500	1.2949
521.6250	1.29251
521.6000	1.29072
521.5750	1.29062
521.5500	1.29086
521.5250	1.29079
521.5000	1.28902
521.4750	1.28842
521.4500	1.28565
521.4250	1.28638
521.4000	1.28499
521.3750	1.28612
521.3500	1.28633
521.3250	1.2882
521.3000	1.28852
521.2750	1.28864
521.2500	1.28529
521.2250	1.28817
521.2000	1.28627
521.1750	1.2841
521.1500	1.28464
521.1250	1.29139
521.1000	1.29764
521.0750	1.29813
521.0500	1.30067
521.0250	1.30421
521.0000	1.30716
520.9750	1.30836
520.9500	1.30452
520.9250	1.30538
520.9000	1.30623
520.8750	1.30594
520.8500	1.30626
520.8250	1.30358
520.8000	1.30458
520.7750	1.30351
520.7500	1.30225
520.7250	1.30076
520.7000	1.30087
520.6750	1.30392
520.6500	1.30034
520.6250	1.30369
520.6000	1.3014
520.5750	1.29865
520.5500	1.2969
520.5250	1.29759
520.5000	1.29768
520.4750	1.29973
520.4500	1.30306
520.4250	1.3036
520.4000	1.30788
520.3750	1.30659
520.3500	1.30352
520.3250	1.30323
520.3000	1.29874
520.2750	1.29861
520.2500	1.29573
520.2250	1.29335
520.2000	1.2941
520.1750	1.29445
520.1500	1.29378
520.1250	1.29316
520.1000	1.29127
520.0750	1.29216
520.0500	1.29435
520.0250	1.29282
520.0000	1.29334
519.9750	1.29321
519.9500	1.29319
519.9250	1.29508
519.9000	1.29264
519.8750	1.29328
519.8500	1.29146
519.8250	1.29092
519.8000	1.28899
519.7750	1.28687
519.7500	1.28961
519.7250	1.2872
519.7000	1.28952
519.6750	1.29181
519.6500	1.29882
519.6250	1.30237
519.6000	1.30813
519.5750	1.30897
519.5500	1.31316
519.5250	1.31037
519.5000	1.31102
519.4750	1.30925
519.4500	1.31092
519.4250	1.31206
519.4000	1.31252
519.3750	1.31064
519.3500	1.30747
519.3250	1.30677
519.3000	1.30544
519.2750	1.3044
519.2500	1.3018
519.2250	1.29938
519.2000	1.30033
519.1750	1.30099
519.1500	1.29891
519.1250	1.30104
519.1000	1.30275
519.0750	1.30477
519.0500	1.30479
519.0250	1.30566
519.0000	1.30275
518.9750	1.30106
518.9500	1.29667
518.9250	1.2945
518.9000	1.29164
518.8750	1.29372
518.8500	1.29266
518.8250	1.29475
518.8000	1.29266
518.7750	1.29435
518.7500	1.29563
518.7250	1.29451
518.7000	1.29355
518.6750	1.2943
518.6500	1.29511
518.6250	1.29422
518.6000	1.29684
518.5750	1.29759
518.5500	1.29822
518.5250	1.29531
518.5000	1.29383
518.4750	1.29295
518.4500	1.29331
518.4250	1.29033
518.4000	1.2909
518.3750	1.29334
518.3500	1.29587
518.3250	1.29811
518.3000	1.30314
518.2750	1.30513
518.2500	1.3065
518.2250	1.3069
518.2000	1.30959
518.1750	1.31115
518.1500	1.31194
518.1250	1.30916
518.1000	1.31161
518.0750	1.31115
518.0500	1.30775
518.0250	1.30737
518.0000	1.30425
517.9750	1.30413
517.9500	1.30447
517.9250	1.30329
517.9000	1.30294
517.8750	1.30303
517.8500	1.30152
517.8250	1.30277
517.8000	1.30124
517.7750	1.29582
517.7500	1.29684
517.7250	1.29693
517.7000	1.29898
517.6750	1.29825
517.6500	1.29953
517.6250	1.29931
517.6000	1.30006
517.5750	1.29917
517.5500	1.29884
517.5250	1.29703
517.5000	1.29673
517.4750	1.29191
517.4500	1.29399
517.4250	1.2932
517.4000	1.29057
517.3750	1.28914
517.3500	1.28419
517.3250	1.28538
517.3000	1.28456
517.2750	1.28204
517.2500	1.28186
517.2250	1.2852
517.2000	1.28584
517.1750	1.2881
517.1500	1.29026
517.1250	1.29177
517.1000	1.29017
517.0750	1.29209
517.0500	1.29194
517.0250	1.29427
517.0000	1.29586
516.9750	1.29806
516.9500	1.30094
516.9250	1.30357
516.9000	1.30443
516.8750	1.30404
516.8500	1.30182
516.8250	1.30048
516.8000	1.29926
516.7750	1.29854
516.7500	1.29693
516.7250	1.29671
516.7000	1.29811
516.6750	1.29892
516.6500	1.29967
516.6250	1.30141
516.6000	1.30234
516.5750	1.30337
516.5500	1.29988
516.5250	1.29695
516.5000	1.29722
516.4750	1.29614
516.4500	1.29616
516.4250	1.29551
516.4000	1.29635
516.3750	1.29827
516.3500	1.2954
516.3250	1.29373
516.3000	1.29249
516.2750	1.28805
516.2500	1.28697
516.2250	1.28661
516.2000	1.28581
516.1750	1.28691
516.1500	1.28531
516.1250	1.28682
516.1000	1.28683
516.0750	1.2851
516.0500	1.2833
516.0250	1.28246
516.0000	1.28334
515.9750	1.28272
515.9500	1.28416
515.9250	1.28197
515.9000	1.2833
515.8750	1.2867
515.8500	1.28783
515.8250	1.29061
515.8000	1.29285
515.7750	1.29714
515.7500	1.29805
515.7250	1.29918
515.7000	1.29535
515.6750	1.29174
515.6500	1.29185
515.6250	1.29209
515.6000	1.29297
515.5750	1.29116
515.5500	1.29237
515.5250	1.29318
515.5000	1.2906
515.4750	1.29241
515.4500	1.28979
515.4250	1.29251
515.4000	1.29457
515.3750	1.29673
515.3500	1.29736
515.3250	1.29334
515.3000	1.29197
515.2750	1.28968
515.2500	1.2894
515.2250	1.28761
515.2000	1.28444
515.1750	1.28544
515.1500	1.28966
515.1250	1.28898
515.1000	1.28965
515.0750	1.28828
515.0500	1.29099
515.0250	1.2903
515.0000	1.29048
514.9750	1.28742
514.9500	1.2868
514.9250	1.28526
514.9000	1.28251
514.8750	1.28105
514.8500	1.27734
514.8250	1.27476
514.8000	1.27847
514.7750	1.2779
514.7500	1.27548
514.7250	1.27712
514.7000	1.2794
514.6750	1.27943
514.6500	1.28182
514.6250	1.28317
514.6000	1.2859
514.5750	1.29035
514.5500	1.29188
514.5250	1.29136
514.5000	1.29329
514.4750	1.29339
514.4500	1.29207
514.4250	1.29015
514.4000	1.29188
514.3750	1.29094
514.3500	1.29277
514.3250	1.29217
514.3000	1.29281
514.2750	1.29204
514.2500	1.29267
514.2250	1.28918
514.2000	1.28941
514.1750	1.28815
514.1500	1.28405
514.1250	1.28292
514.1000	1.2848
514.0750	1.28669
514.0500	1.28639
514.0250	1.28336
514.0000	1.28568
513.9750	1.28817
513.9500	1.28541
513.9250	1.28329
513.9000	1.28148
513.8750	1.28309
513.8500	1.28575
513.8250	1.28232
513.8000	1.27903
513.7750	1.27968
513.7500	1.27939
513.7250	1.27869
513.7000	1.27628
513.6750	1.27654
513.6500	1.27854
513.6250	1.27792
513.6000	1.27851
513.5750	1.2778
513.5500	1.28074
513.5250	1.28357
513.5000	1.28522
513.4750	1.28676
513.4500	1.28842
513.4250	1.28974
513.4000	1.29078
513.3750	1.29054
513.3500	1.28948
513.3250	1.29139
513.3000	1.2949
513.2750	1.29136
513.2500	1.29184
513.2250	1.28993
513.2000	1.2904
513.1750	1.28699
513.1500	1.28396
513.1250	1.28455
513.1000	1.28495
513.0750	1.28172
513.0500	1.28456
513.0250	1.28661
513.0000	1.28849
512.9750	1.29079
512.9500	1.29213
512.9250	1.29259
512.9000	1.29232
512.8750	1.28909
512.8500	1.28968
512.8250	1.28711
512.8000	1.2844
512.7750	1.28187
512.7500	1.2811
512.7250	1.28127
512.7000	1.27821
512.6750	1.28094
512.6500	1.28196
512.6250	1.28122
512.6000	1.2824
512.5750	1.28215
512.5500	1.281
512.5250	1.28007
512.5000	1.27777
512.4750	1.28056
512.4500	1.2808
512.4250	1.28326
512.4000	1.28548
512.3750	1.28607
512.3500	1.28863
512.3250	1.28892
512.3000	1.28898
512.2750	1.29164
512.2500	1.29348
512.2250	1.29408
512.2000	1.29319
512.1750	1.29442
512.1500	1.29484
512.1250	1.29217
512.1000	1.29267
512.0750	1.29182
512.0500	1.29219
512.0250	1.29428
512.0000	1.29153
511.9750	1.29387
511.9500	1.29429
511.9250	1.29136
511.9000	1.29064
511.8750	1.28698
511.8500	1.2901
511.8250	1.29079
511.8000	1.29118
511.7750	1.29076
511.7500	1.29121
511.7250	1.29066
511.7000	1.29241
511.6750	1.29185
511.6500	1.28936
511.6250	1.28734
511.6000	1.28755
511.5750	1.28585
511.5500	1.28638
511.5250	1.28306
511.5000	1.28092
511.4750	1.28312
511.4500	1.28786
511.4250	1.28659
511.4000	1.28846
511.3750	1.28998
511.3500	1.29286
511.3250	1.29643
511.3000	1.2932
511.2750	1.2932
511.2500	1.29701
511.2250	1.29318
511.2000	1.29415
511.1750	1.29601
511.1500	1.29283
511.1250	1.2901
511.1000	1.29094
511.0750	1.29035
511.0500	1.29191
511.0250	1.29006
511.0000	1.29006
510.9750	1.29248
510.9500	1.29211
510.9250	1.29114
510.9000	1.29216
510.8750	1.2888
510.8500	1.28977
510.8250	1.2886
510.8000	1.28736
510.7750	1.28664
510.7500	1.28627
510.7250	1.28766
510.7000	1.29015
510.6750	1.28675
510.6500	1.28753
510.6250	1.28804
510.6000	1.28673
510.5750	1.28774
510.5500	1.28405
510.5250	1.28514
510.5000	1.28609
510.4750	1.28733
510.4500	1.28851
510.4250	1.2952
510.4000	1.29693
510.3750	1.29583
510.3500	1.29758
510.3250	1.2963
510.3000	1.29299
510.2750	1.2888
510.2500	1.28863
510.2250	1.29104
510.2000	1.29273
510.1750	1.29287
510.1500	1.29077
510.1250	1.29101
510.1000	1.28794
510.0750	1.28617
510.0500	1.28172
510.0250	1.28465
510.0000	1.28951
509.9750	1.28807
509.9500	1.29054
509.9250	1.28951
509.9000	1.28782
509.8750	1.29126
509.8500	1.29044
509.8250	1.29167
509.8000	1.29198
509.7750	1.28935
509.7500	1.28808
509.7250	1.2848
509.7000	1.28089
509.6750	1.28007
509.6500	1.27986
509.6250	1.28331
509.6000	1.28613
509.5750	1.2877
509.5500	1.29205
509.5250	1.29375
509.5000	1.2938
509.4750	1.29397
509.4500	1.29337
509.4250	1.29359
509.4000	1.28772
509.3750	1.28646
509.3500	1.29058
509.3250	1.28767
509.3000	1.28664
509.2750	1.28686
509.2500	1.28661
509.2250	1.29039
509.2000	1.28619
509.1750	1.28653
509.1500	1.28617
509.1250	1.28684
509.1000	1.28672
509.0750	1.28514
509.0500	1.28724
509.0250	1.28456
509.0000	1.28645
508.9750	1.28901
508.9500	1.287
508.9250	1.28612
508.9000	1.2828
508.8750	1.28194
508.8500	1.28109
508.8250	1.28221
508.8000	1.28518
508.7750	1.2868
508.7500	1.28694
508.7250	1.28923
508.7000	1.28881
508.6750	1.28584
508.6500	1.28524
508.6250	1.28496
508.6000	1.2855
508.5750	1.28546
508.5500	1.28664
508.5250	1.28782
508.5000	1.28735
508.4750	1.28511
508.4500	1.28351
508.4250	1.28315
508.4000	1.28285
508.3750	1.28397
508.3500	1.28408
508.3250	1.28377
508.3000	1.28187
508.2750	1.2845
508.2500	1.28533
508.2250	1.28358
508.2000	1.28257
508.1750	1.27999
508.1500	1.28186
508.1250	1.28267
508.1000	1.27946
508.0750	1.27993
508.0500	1.27767
508.0250	1.277
508.0000	1.27765
507.9750	1.27309
507.9500	1.27363
507.9250	1.27292
507.9000	1.27535
507.8750	1.27496
507.8500	1.2804
507.8250	1.28205
507.8000	1.2829
507.7750	1.28158
507.7500	1.28371
507.7250	1.28361
507.7000	1.28215
507.6750	1.27844
507.6500	1.28056
507.6250	1.28117
507.6000	1.28275
507.5750	1.28049
507.5500	1.28128
507.5250	1.28474
507.5000	1.28367
507.4750	1.28306
507.4500	1.28207
507.4250	1.28231
507.4000	1.28034
507.3750	1.27731
507.3500	1.28136
507.3250	1.27977
507.3000	1.27909
507.2750	1.27995
507.2500	1.28105
507.2250	1.28306
507.2000	1.28414
507.1750	1.28481
507.1500	1.28488
507.1250	1.28543
507.1000	1.28534
507.0750	1.28568
507.0500	1.28701
507.0250	1.28492
507.0000	1.28204
506.9750	1.2808
506.9500	1.28054
506.9250	1.28214
506.9000	1.27817
506.8750	1.27585
506.8500	1.27719
506.8250	1.27694
506.8000	1.27626
506.7750	1.27619
506.7500	1.27761
506.7250	1.27763
506.7000	1.27678
506.6750	1.27592
506.6500	1.27899
506.6250	1.27492
506.6000	1.27469
506.5750	1.27656
506.5500	1.27598
506.5250	1.27605
506.5000	1.27701
506.4750	1.27869
506.4500	1.27935
506.4250	1.27595
506.4000	1.27616
506.3750	1.27961
506.3500	1.28026
506.3250	1.28274
506.3000	1.28385
506.2750	1.28772
506.2500	1.29023
506.2250	1.29076
506.2000	1.28972
506.1750	1.28495
506.1500	1.28533
506.1250	1.28348
506.1000	1.28031
506.0750	1.28066
506.0500	1.28309
506.0250	1.28568
506.0000	1.28401
505.9750	1.28223
505.9500	1.28285
505.9250	1.28184
505.9000	1.27896
505.8750	1.27843
505.8500	1.27911
505.8250	1.28117
505.8000	1.28197
505.7750	1.28023
505.7500	1.28339
505.7250	1.28524
505.7000	1.28506
505.6750	1.28078
505.6500	1.28136
505.6250	1.28372
505.6000	1.28614
505.5750	1.28458
505.5500	1.28541
505.5250	1.28556
505.5000	1.28495
505.4750	1.28578
505.4500	1.28511
505.4250	1.28333
505.4000	1.28553
505.3750	1.28588
505.3500	1.28836
505.3250	1.28762
505.3000	1.28657
505.2750	1.284
505.2500	1.28517
505.2250	1.28484
505.2000	1.28469
505.1750	1.28661
505.1500	1.28731
505.1250	1.28744
505.1000	1.28661
505.0750	1.28943
505.0500	1.28887
505.0250	1.28576
505.0000	1.28524
504.9750	1.28668
504.9500	1.28548
504.9250	1.28304
504.9000	1.28367
504.8750	1.28352
504.8500	1.28578
504.8250	1.28207
504.8000	1.28327
504.7750	1.28298
504.7500	1.28276
504.7250	1.28144
504.7000	1.27913
504.6750	1.28105
504.6500	1.28276
504.6250	1.28081
504.6000	1.27822
504.5750	1.28319
504.5500	1.2819
504.5250	1.27907
504.5000	1.27742
504.4750	1.27954
504.4500	1.27965
504.4250	1.27913
504.4000	1.28004
504.3750	1.28566
504.3500	1.28498
504.3250	1.28572
504.3000	1.28771
504.2750	1.29124
504.2500	1.29062
504.2250	1.2858
504.2000	1.28129
504.1750	1.28126
504.1500	1.28112
504.1250	1.28076
504.1000	1.27954
504.0750	1.28017
504.0500	1.28183
504.0250	1.28394
504.0000	1.28482
503.9750	1.2833
503.9500	1.27924
503.9250	1.28139
503.9000	1.28256
503.8750	1.28671
503.8500	1.28569
503.8250	1.28291
503.8000	1.28789
503.7750	1.28985
503.7500	1.28972
503.7250	1.28734
503.7000	1.28706
503.6750	1.29038
503.6500	1.2886
503.6250	1.28646
503.6000	1.28481
503.5750	1.2844
503.5500	1.28412
503.5250	1.2815
503.5000	1.28204
503.4750	1.28299
503.4500	1.28063
503.4250	1.281
503.4000	1.27999
503.3750	1.27994
503.3500	1.28341
503.3250	1.2846
503.3000	1.2852
503.2750	1.28545
503.2500	1.28501
503.2250	1.28514
503.2000	1.28275
503.1750	1.28047
503.1500	1.28369
503.1250	1.28335
503.1000	1.28476
503.0750	1.28869
503.0500	1.28653
503.0250	1.28814
503.0000	1.28499
502.9750	1.28401
502.9500	1.28512
502.9250	1.28589
502.9000	1.28612
502.8750	1.28737
502.8500	1.28624
502.8250	1.28739
502.8000	1.28518
502.7750	1.28493
502.7500	1.28504
502.7250	1.2868
502.7000	1.28822
502.6750	1.28916
502.6500	1.29013
502.6250	1.28736
502.6000	1.28385
502.5750	1.28134
502.5500	1.27796
502.5250	1.27678
502.5000	1.27415
502.4750	1.27288
502.4500	1.27435
502.4250	1.27662
502.4000	1.28072
502.3750	1.2794
502.3500	1.28183
502.3250	1.28746
502.3000	1.28591
502.2750	1.28604
502.2500	1.28397
502.2250	1.28186
502.2000	1.28161
502.1750	1.27754
502.1500	1.27819
502.1250	1.28001
502.1000	1.27734
502.0750	1.27874
502.0500	1.27766
502.0250	1.27946
502.0000	1.2811
501.9750	1.27855
501.9500	1.27794
501.9250	1.27998
501.9000	1.27763
501.8750	1.27659
501.8500	1.27867
501.8250	1.27571
501.8000	1.27748
501.7750	1.27589
501.7500	1.27829
501.7250	1.28143
501.7000	1.28175
501.6750	1.28235
501.6500	1.281
501.6250	1.2831
501.6000	1.28021
501.5750	1.27979
501.5500	1.27979
501.5250	1.28048
501.5000	1.2767
501.4750	1.27684
501.4500	1.27689
501.4250	1.27464
501.4000	1.27462
501.3750	1.27337
501.3500	1.27545
501.3250	1.27481
501.3000	1.27475
501.2750	1.27799
501.2500	1.27809
501.2250	1.27903
501.2000	1.27902
501.1750	1.27886
501.1500	1.2745
501.1250	1.27381
501.1000	1.27229
501.0750	1.27499
501.0500	1.27462
501.0250	1.27538
501.0000	1.27717
500.9750	1.27699
500.9500	1.2769
500.9250	1.27553
500.9000	1.27417
500.8750	1.27181
500.8500	1.27029
500.8250	1.27082
500.8000	1.27283
500.7750	1.27368
500.7500	1.27453
500.7250	1.27392
500.7000	1.27661
500.6750	1.27697
500.6500	1.27621
500.6250	1.27429
500.6000	1.275
500.5750	1.27385
500.5500	1.2748
500.5250	1.27438
500.5000	1.27753
500.4750	1.27768
500.4500	1.27603
500.4250	1.27806
500.4000	1.28261
500.3750	1.28068
500.3500	1.28198
500.3250	1.28098
500.3000	1.28057
500.2750	1.27682
500.2500	1.2752
500.2250	1.27451
500.2000	1.27248
500.1750	1.27362
500.1500	1.2724
500.1250	1.27607
500.1000	1.27622
500.0750	1.27292
500.0500	1.27275
500.0250	1.2702
500.0000	1.271

##### Extended Information
[Comments]
Sample name
Comment
User
Division
Company	FU Berlin

[Detailed Information]
Creation date	04.06.2018 12:16

Data array type	Linear data array
Horizontal axis	Wavelength [nm]
Vertical axis	%T
Start	650 nm
End	500 nm
Data interval	0.025 nm
Data points	6001    

[Measurement Information]
Instrument name	JASCO-V750
Model name	V-750
Serial No.	A007961799

Measurement date	04.06.2018 11:14

Photometric mode	%T
Measurement range	650 - 500 nm
Data interval	0.025 nm
Bandwidth	0.1 nm
Response	0.96 sec
Scan speed	10 nm/min
Change source at	340 nm
Light source	D2/WI
Filter exchange	Step
Correction	None
No. of cycles	4
Cycle interval	0 sec
Cycle No.	2

