TITLE	
DATA TYPE	ULTRAVIOLET SPECTRUM
ORIGIN	JASCO
OWNER	
DATE	18/06/04
TIME	12:16:15
SPECTROMETER/DATA SYSTEM	
LOCALE	1031
RESOLUTION	
DELTAX	-0.025
XUNITS	NANOMETERS
YUNITS	TRANSMITTANCE
FIRSTX	  650.0000
LASTX	  500.0000
NPOINTS	    6001
FIRSTY	     1.54708
MAXY	     1.55374
MINY	     1.26602
XYDATA
650.0000	1.54708
649.9750	1.55033
649.9500	1.55296
649.9250	1.54836
649.9000	1.54667
649.8750	1.54687
649.8500	1.54639
649.8250	1.5441
649.8000	1.54075
649.7750	1.54098
649.7500	1.54229
649.7250	1.54242
649.7000	1.54135
649.6750	1.54333
649.6500	1.54181
649.6250	1.54269
649.6000	1.54309
649.5750	1.54349
649.5500	1.54561
649.5250	1.54169
649.5000	1.54097
649.4750	1.54149
649.4500	1.54342
649.4250	1.54414
649.4000	1.54442
649.3750	1.54698
649.3500	1.55141
649.3250	1.55169
649.3000	1.55374
649.2750	1.55238
649.2500	1.55078
649.2250	1.54804
649.2000	1.5462
649.1750	1.54472
649.1500	1.5436
649.1250	1.54263
649.1000	1.54368
649.0750	1.54455
649.0500	1.54361
649.0250	1.54635
649.0000	1.54559
648.9750	1.54005
648.9500	1.54227
648.9250	1.53864
648.9000	1.54149
648.8750	1.53767
648.8500	1.53851
648.8250	1.53879
648.8000	1.5418
648.7750	1.54109
648.7500	1.54098
648.7250	1.53992
648.7000	1.54098
648.6750	1.54214
648.6500	1.54332
648.6250	1.54311
648.6000	1.5448
648.5750	1.54621
648.5500	1.54345
648.5250	1.54075
648.5000	1.53659
648.4750	1.53708
648.4500	1.53386
648.4250	1.53301
648.4000	1.53239
648.3750	1.5378
648.3500	1.53841
648.3250	1.54059
648.3000	1.54349
648.2750	1.54147
648.2500	1.53867
648.2250	1.53772
648.2000	1.53646
648.1750	1.53822
648.1500	1.53362
648.1250	1.53406
648.1000	1.53652
648.0750	1.53982
648.0500	1.54183
648.0250	1.5414
648.0000	1.54217
647.9750	1.54204
647.9500	1.54043
647.9250	1.54251
647.9000	1.54055
647.8750	1.53786
647.8500	1.53798
647.8250	1.53929
647.8000	1.53689
647.7750	1.53292
647.7500	1.53655
647.7250	1.53805
647.7000	1.53718
647.6750	1.53668
647.6500	1.53973
647.6250	1.53935
647.6000	1.54326
647.5750	1.54193
647.5500	1.54087
647.5250	1.54296
647.5000	1.54027
647.4750	1.54174
647.4500	1.54098
647.4250	1.53572
647.4000	1.53808
647.3750	1.54131
647.3500	1.54066
647.3250	1.54106
647.3000	1.5405
647.2750	1.54027
647.2500	1.53932
647.2250	1.53502
647.2000	1.53562
647.1750	1.53364
647.1500	1.53614
647.1250	1.54173
647.1000	1.54105
647.0750	1.54187
647.0500	1.54173
647.0250	1.54328
647.0000	1.54106
646.9750	1.53947
646.9500	1.53846
646.9250	1.54022
646.9000	1.54082
646.8750	1.53851
646.8500	1.53816
646.8250	1.5414
646.8000	1.54186
646.7750	1.53768
646.7500	1.53972
646.7250	1.54036
646.7000	1.54035
646.6750	1.53931
646.6500	1.54002
646.6250	1.54407
646.6000	1.54645
646.5750	1.54688
646.5500	1.54477
646.5250	1.54459
646.5000	1.54464
646.4750	1.5445
646.4500	1.54215
646.4250	1.54244
646.4000	1.53979
646.3750	1.54057
646.3500	1.54011
646.3250	1.5375
646.3000	1.53865
646.2750	1.53628
646.2500	1.53968
646.2250	1.53995
646.2000	1.5413
646.1750	1.54086
646.1500	1.54217
646.1250	1.54108
646.1000	1.54367
646.0750	1.54285
646.0500	1.54109
646.0250	1.5395
646.0000	1.53831
645.9750	1.53775
645.9500	1.53987
645.9250	1.53879
645.9000	1.53844
645.8750	1.53917
645.8500	1.53949
645.8250	1.54123
645.8000	1.53875
645.7750	1.53892
645.7500	1.54111
645.7250	1.54217
645.7000	1.53983
645.6750	1.53923
645.6500	1.5414
645.6250	1.54286
645.6000	1.54201
645.5750	1.53612
645.5500	1.53773
645.5250	1.53546
645.5000	1.53735
645.4750	1.53743
645.4500	1.54062
645.4250	1.54197
645.4000	1.54513
645.3750	1.54801
645.3500	1.54792
645.3250	1.54872
645.3000	1.54311
645.2750	1.54411
645.2500	1.54087
645.2250	1.53627
645.2000	1.53567
645.1750	1.53587
645.1500	1.53707
645.1250	1.53684
645.1000	1.53644
645.0750	1.5389
645.0500	1.54268
645.0250	1.54176
645.0000	1.5436
644.9750	1.54711
644.9500	1.55112
644.9250	1.55341
644.9000	1.55009
644.8750	1.54771
644.8500	1.54691
644.8250	1.54452
644.8000	1.54571
644.7750	1.54409
644.7500	1.54049
644.7250	1.54288
644.7000	1.54394
644.6750	1.54489
644.6500	1.5466
644.6250	1.53999
644.6000	1.54345
644.5750	1.54027
644.5500	1.53994
644.5250	1.53868
644.5000	1.53976
644.4750	1.54072
644.4500	1.5421
644.4250	1.54157
644.4000	1.54282
644.3750	1.54421
644.3500	1.54172
644.3250	1.54241
644.3000	1.54136
644.2750	1.54129
644.2500	1.54122
644.2250	1.54412
644.2000	1.54365
644.1750	1.54174
644.1500	1.54425
644.1250	1.54563
644.1000	1.54675
644.0750	1.54586
644.0500	1.54368
644.0250	1.54731
644.0000	1.54869
643.9750	1.54661
643.9500	1.54817
643.9250	1.54898
643.9000	1.54896
643.8750	1.5511
643.8500	1.54943
643.8250	1.54913
643.8000	1.54971
643.7750	1.54807
643.7500	1.54646
643.7250	1.54357
643.7000	1.54418
643.6750	1.54082
643.6500	1.54481
643.6250	1.54403
643.6000	1.54692
643.5750	1.54711
643.5500	1.5461
643.5250	1.54842
643.5000	1.5488
643.4750	1.54769
643.4500	1.54721
643.4250	1.54595
643.4000	1.54897
643.3750	1.55063
643.3500	1.55315
643.3250	1.55026
643.3000	1.54816
643.2750	1.54464
643.2500	1.54489
643.2250	1.54173
643.2000	1.53967
643.1750	1.53743
643.1500	1.5376
643.1250	1.54217
643.1000	1.54289
643.0750	1.5429
643.0500	1.54328
643.0250	1.54269
643.0000	1.54424
642.9750	1.54236
642.9500	1.54488
642.9250	1.54336
642.9000	1.54277
642.8750	1.54154
642.8500	1.54175
642.8250	1.54233
642.8000	1.53954
642.7750	1.54014
642.7500	1.54074
642.7250	1.54449
642.7000	1.54481
642.6750	1.54753
642.6500	1.55138
642.6250	1.54966
642.6000	1.54945
642.5750	1.54866
642.5500	1.54586
642.5250	1.54625
642.5000	1.54413
642.4750	1.54431
642.4500	1.5463
642.4250	1.55031
642.4000	1.54772
642.3750	1.5473
642.3500	1.54735
642.3250	1.54467
642.3000	1.54417
642.2750	1.53912
642.2500	1.54098
642.2250	1.54011
642.2000	1.54288
642.1750	1.54321
642.1500	1.54136
642.1250	1.54179
642.1000	1.54233
642.0750	1.54123
642.0500	1.54144
642.0250	1.54123
642.0000	1.53996
641.9750	1.5466
641.9500	1.54926
641.9250	1.54883
641.9000	1.5487
641.8750	1.55051
641.8500	1.54816
641.8250	1.5462
641.8000	1.546
641.7750	1.54237
641.7500	1.54256
641.7250	1.53897
641.7000	1.53958
641.6750	1.54095
641.6500	1.53733
641.6250	1.53756
641.6000	1.54118
641.5750	1.54093
641.5500	1.5429
641.5250	1.54464
641.5000	1.54199
641.4750	1.54431
641.4500	1.5413
641.4250	1.54225
641.4000	1.54207
641.3750	1.54417
641.3500	1.54436
641.3250	1.54816
641.3000	1.547
641.2750	1.54793
641.2500	1.5449
641.2250	1.54074
641.2000	1.54044
641.1750	1.53987
641.1500	1.53595
641.1250	1.53599
641.1000	1.53919
641.0750	1.53881
641.0500	1.53783
641.0250	1.53623
641.0000	1.53962
640.9750	1.54084
640.9500	1.53812
640.9250	1.53726
640.9000	1.53894
640.8750	1.54115
640.8500	1.54064
640.8250	1.53972
640.8000	1.53962
640.7750	1.53773
640.7500	1.5393
640.7250	1.5406
640.7000	1.54275
640.6750	1.54433
640.6500	1.54308
640.6250	1.54175
640.6000	1.54574
640.5750	1.54234
640.5500	1.53965
640.5250	1.54002
640.5000	1.54081
640.4750	1.54083
640.4500	1.54021
640.4250	1.54068
640.4000	1.5407
640.3750	1.53978
640.3500	1.54119
640.3250	1.54196
640.3000	1.53771
640.2750	1.53229
640.2500	1.53819
640.2250	1.53984
640.2000	1.54023
640.1750	1.53962
640.1500	1.53868
640.1250	1.53865
640.1000	1.54112
640.0750	1.53987
640.0500	1.53678
640.0250	1.53624
640.0000	1.53823
639.9750	1.53698
639.9500	1.53548
639.9250	1.5341
639.9000	1.53169
639.8750	1.53033
639.8500	1.52931
639.8250	1.52892
639.8000	1.52823
639.7750	1.52804
639.7500	1.52869
639.7250	1.53085
639.7000	1.53126
639.6750	1.53266
639.6500	1.53724
639.6250	1.53783
639.6000	1.53863
639.5750	1.53877
639.5500	1.54181
639.5250	1.54029
639.5000	1.53891
639.4750	1.53923
639.4500	1.53891
639.4250	1.54134
639.4000	1.5378
639.3750	1.53898
639.3500	1.54051
639.3250	1.53775
639.3000	1.53811
639.2750	1.5375
639.2500	1.54032
639.2250	1.53958
639.2000	1.54004
639.1750	1.54004
639.1500	1.54077
639.1250	1.53987
639.1000	1.53815
639.0750	1.53331
639.0500	1.53547
639.0250	1.53239
639.0000	1.53174
638.9750	1.53195
638.9500	1.53431
638.9250	1.53565
638.9000	1.5353
638.8750	1.53644
638.8500	1.53982
638.8250	1.537
638.8000	1.53612
638.7750	1.53472
638.7500	1.534
638.7250	1.53467
638.7000	1.53232
638.6750	1.53247
638.6500	1.53213
638.6250	1.5281
638.6000	1.52752
638.5750	1.5248
638.5500	1.5253
638.5250	1.52494
638.5000	1.52618
638.4750	1.52787
638.4500	1.53377
638.4250	1.53293
638.4000	1.53452
638.3750	1.53601
638.3500	1.53273
638.3250	1.53019
638.3000	1.52787
638.2750	1.52685
638.2500	1.5282
638.2250	1.52934
638.2000	1.52856
638.1750	1.52846
638.1500	1.52799
638.1250	1.52994
638.1000	1.52957
638.0750	1.52942
638.0500	1.53232
638.0250	1.53421
638.0000	1.53573
637.9750	1.53832
637.9500	1.53427
637.9250	1.53405
637.9000	1.53088
637.8750	1.53053
637.8500	1.5297
637.8250	1.52517
637.8000	1.52258
637.7750	1.52057
637.7500	1.52246
637.7250	1.52363
637.7000	1.52753
637.6750	1.53073
637.6500	1.53349
637.6250	1.53531
637.6000	1.53555
637.5750	1.53514
637.5500	1.53299
637.5250	1.53167
637.5000	1.53185
637.4750	1.53024
637.4500	1.52925
637.4250	1.52769
637.4000	1.52823
637.3750	1.52624
637.3500	1.52734
637.3250	1.52928
637.3000	1.5275
637.2750	1.52637
637.2500	1.52568
637.2250	1.52571
637.2000	1.52405
637.1750	1.52444
637.1500	1.5256
637.1250	1.5281
637.1000	1.529
637.0750	1.53033
637.0500	1.53046
637.0250	1.53032
637.0000	1.52878
636.9750	1.527
636.9500	1.52285
636.9250	1.52145
636.9000	1.51868
636.8750	1.52001
636.8500	1.52211
636.8250	1.51988
636.8000	1.5235
636.7750	1.52646
636.7500	1.5299
636.7250	1.5295
636.7000	1.52775
636.6750	1.52926
636.6500	1.53039
636.6250	1.52906
636.6000	1.52734
636.5750	1.52679
636.5500	1.52403
636.5250	1.52284
636.5000	1.52221
636.4750	1.52271
636.4500	1.52218
636.4250	1.52284
636.4000	1.52482
636.3750	1.52665
636.3500	1.52584
636.3250	1.52892
636.3000	1.53007
636.2750	1.53044
636.2500	1.52938
636.2250	1.53024
636.2000	1.52999
636.1750	1.52715
636.1500	1.5233
636.1250	1.52218
636.1000	1.5227
636.0750	1.52079
636.0500	1.51637
636.0250	1.51495
636.0000	1.51501
635.9750	1.51835
635.9500	1.51843
635.9250	1.51929
635.9000	1.5194
635.8750	1.51998
635.8500	1.51961
635.8250	1.51741
635.8000	1.51683
635.7750	1.51506
635.7500	1.51383
635.7250	1.51551
635.7000	1.51618
635.6750	1.51925
635.6500	1.5199
635.6250	1.52013
635.6000	1.52154
635.5750	1.52212
635.5500	1.52193
635.5250	1.52711
635.5000	1.52791
635.4750	1.52898
635.4500	1.52963
635.4250	1.53559
635.4000	1.53366
635.3750	1.53028
635.3500	1.52958
635.3250	1.531
635.3000	1.53201
635.2750	1.52796
635.2500	1.52967
635.2250	1.53062
635.2000	1.53268
635.1750	1.52976
635.1500	1.52967
635.1250	1.53049
635.1000	1.52959
635.0750	1.52824
635.0500	1.52485
635.0250	1.52488
635.0000	1.52201
634.9750	1.52085
634.9500	1.52154
634.9250	1.52361
634.9000	1.5253
634.8750	1.52362
634.8500	1.52742
634.8250	1.52947
634.8000	1.52791
634.7750	1.52683
634.7500	1.52596
634.7250	1.5258
634.7000	1.5238
634.6750	1.52348
634.6500	1.52765
634.6250	1.52945
634.6000	1.52607
634.5750	1.52572
634.5500	1.5299
634.5250	1.52978
634.5000	1.52957
634.4750	1.52963
634.4500	1.53014
634.4250	1.53146
634.4000	1.52888
634.3750	1.52399
634.3500	1.52021
634.3250	1.52455
634.3000	1.52403
634.2750	1.52408
634.2500	1.52368
634.2250	1.52528
634.2000	1.52817
634.1750	1.52723
634.1500	1.52372
634.1250	1.52654
634.1000	1.52858
634.0750	1.52749
634.0500	1.52679
634.0250	1.52669
634.0000	1.5278
633.9750	1.53269
633.9500	1.53137
633.9250	1.53034
633.9000	1.53122
633.8750	1.52876
633.8500	1.52574
633.8250	1.52307
633.8000	1.5199
633.7750	1.51953
633.7500	1.52
633.7250	1.52143
633.7000	1.52307
633.6750	1.52369
633.6500	1.52532
633.6250	1.52714
633.6000	1.5282
633.5750	1.52734
633.5500	1.52549
633.5250	1.52713
633.5000	1.52536
633.4750	1.52508
633.4500	1.52308
633.4250	1.52472
633.4000	1.52348
633.3750	1.5246
633.3500	1.52485
633.3250	1.52382
633.3000	1.52635
633.2750	1.5267
633.2500	1.52761
633.2250	1.5248
633.2000	1.52234
633.1750	1.52249
633.1500	1.52145
633.1250	1.51981
633.1000	1.52253
633.0750	1.52319
633.0500	1.52614
633.0250	1.53098
633.0000	1.52825
632.9750	1.53121
632.9500	1.52925
632.9250	1.52694
632.9000	1.52535
632.8750	1.52261
632.8500	1.52081
632.8250	1.52013
632.8000	1.52112
632.7750	1.52082
632.7500	1.52307
632.7250	1.52113
632.7000	1.5224
632.6750	1.52133
632.6500	1.5217
632.6250	1.523
632.6000	1.52147
632.5750	1.52303
632.5500	1.52625
632.5250	1.527
632.5000	1.52504
632.4750	1.52439
632.4500	1.5236
632.4250	1.52564
632.4000	1.52163
632.3750	1.52141
632.3500	1.52178
632.3250	1.52435
632.3000	1.52521
632.2750	1.5229
632.2500	1.52475
632.2250	1.52555
632.2000	1.52799
632.1750	1.5277
632.1500	1.52803
632.1250	1.52822
632.1000	1.53053
632.0750	1.52994
632.0500	1.52781
632.0250	1.5246
632.0000	1.5221
631.9750	1.52537
631.9500	1.52334
631.9250	1.5254
631.9000	1.52757
631.8750	1.52648
631.8500	1.52861
631.8250	1.52746
631.8000	1.52819
631.7750	1.52891
631.7500	1.5253
631.7250	1.52477
631.7000	1.52657
631.6750	1.52697
631.6500	1.52522
631.6250	1.52345
631.6000	1.51943
631.5750	1.51953
631.5500	1.52048
631.5250	1.52066
631.5000	1.51981
631.4750	1.5221
631.4500	1.52445
631.4250	1.52477
631.4000	1.5252
631.3750	1.52341
631.3500	1.52377
631.3250	1.52639
631.3000	1.5225
631.2750	1.5203
631.2500	1.52649
631.2250	1.52548
631.2000	1.52762
631.1750	1.52365
631.1500	1.52268
631.1250	1.52756
631.1000	1.52627
631.0750	1.52637
631.0500	1.52549
631.0250	1.5245
631.0000	1.523
630.9750	1.52488
630.9500	1.52352
630.9250	1.52279
630.9000	1.52527
630.8750	1.52708
630.8500	1.52886
630.8250	1.5317
630.8000	1.5287
630.7750	1.52704
630.7500	1.52878
630.7250	1.52961
630.7000	1.52732
630.6750	1.52813
630.6500	1.52927
630.6250	1.53329
630.6000	1.53292
630.5750	1.53036
630.5500	1.53152
630.5250	1.53097
630.5000	1.53101
630.4750	1.52964
630.4500	1.53024
630.4250	1.53079
630.4000	1.52989
630.3750	1.5316
630.3500	1.53074
630.3250	1.53093
630.3000	1.53091
630.2750	1.52761
630.2500	1.52703
630.2250	1.52589
630.2000	1.52567
630.1750	1.52394
630.1500	1.52258
630.1250	1.52425
630.1000	1.52554
630.0750	1.52692
630.0500	1.52919
630.0250	1.52769
630.0000	1.52522
629.9750	1.52186
629.9500	1.51964
629.9250	1.51846
629.9000	1.51839
629.8750	1.51716
629.8500	1.51969
629.8250	1.52427
629.8000	1.52462
629.7750	1.52511
629.7500	1.52718
629.7250	1.52784
629.7000	1.52796
629.6750	1.52788
629.6500	1.52655
629.6250	1.52661
629.6000	1.52839
629.5750	1.52733
629.5500	1.52724
629.5250	1.52523
629.5000	1.52377
629.4750	1.52335
629.4500	1.52271
629.4250	1.52263
629.4000	1.5208
629.3750	1.52337
629.3500	1.52301
629.3250	1.52372
629.3000	1.52344
629.2750	1.52274
629.2500	1.52178
629.2250	1.51941
629.2000	1.51861
629.1750	1.51642
629.1500	1.51926
629.1250	1.52029
629.1000	1.5224
629.0750	1.52398
629.0500	1.52594
629.0250	1.52604
629.0000	1.526
628.9750	1.52408
628.9500	1.52369
628.9250	1.5207
628.9000	1.51883
628.8750	1.51855
628.8500	1.5179
628.8250	1.51799
628.8000	1.52098
628.7750	1.51756
628.7500	1.52302
628.7250	1.52336
628.7000	1.52289
628.6750	1.52474
628.6500	1.52596
628.6250	1.52709
628.6000	1.5265
628.5750	1.52372
628.5500	1.52595
628.5250	1.52483
628.5000	1.523
628.4750	1.51564
628.4500	1.51704
628.4250	1.51785
628.4000	1.51876
628.3750	1.51954
628.3500	1.51966
628.3250	1.5253
628.3000	1.52545
628.2750	1.52346
628.2500	1.52496
628.2250	1.52372
628.2000	1.52324
628.1750	1.52077
628.1500	1.51969
628.1250	1.52102
628.1000	1.52053
628.0750	1.51985
628.0500	1.51884
628.0250	1.51875
628.0000	1.51731
627.9750	1.51577
627.9500	1.5154
627.9250	1.51592
627.9000	1.51256
627.8750	1.51352
627.8500	1.51467
627.8250	1.51751
627.8000	1.51517
627.7750	1.51418
627.7500	1.51548
627.7250	1.51546
627.7000	1.51594
627.6750	1.51534
627.6500	1.51406
627.6250	1.51245
627.6000	1.5132
627.5750	1.51055
627.5500	1.51289
627.5250	1.51338
627.5000	1.51381
627.4750	1.51643
627.4500	1.51396
627.4250	1.51237
627.4000	1.5125
627.3750	1.51477
627.3500	1.51586
627.3250	1.51582
627.3000	1.51793
627.2750	1.52016
627.2500	1.52227
627.2250	1.52371
627.2000	1.52104
627.1750	1.51998
627.1500	1.51971
627.1250	1.51996
627.1000	1.52114
627.0750	1.51797
627.0500	1.51757
627.0250	1.51908
627.0000	1.51751
626.9750	1.51617
626.9500	1.5151
626.9250	1.51416
626.9000	1.51629
626.8750	1.51887
626.8500	1.51739
626.8250	1.51762
626.8000	1.51756
626.7750	1.518
626.7500	1.51546
626.7250	1.51523
626.7000	1.51672
626.6750	1.51471
626.6500	1.51434
626.6250	1.51683
626.6000	1.51602
626.5750	1.51254
626.5500	1.51139
626.5250	1.51164
626.5000	1.51448
626.4750	1.5113
626.4500	1.51323
626.4250	1.51457
626.4000	1.5139
626.3750	1.51397
626.3500	1.51062
626.3250	1.50769
626.3000	1.5095
626.2750	1.50949
626.2500	1.50974
626.2250	1.50813
626.2000	1.50896
626.1750	1.51164
626.1500	1.51334
626.1250	1.51224
626.1000	1.51288
626.0750	1.51366
626.0500	1.51366
626.0250	1.5109
626.0000	1.51392
625.9750	1.5146
625.9500	1.51573
625.9250	1.51325
625.9000	1.51307
625.8750	1.51539
625.8500	1.5169
625.8250	1.51414
625.8000	1.51236
625.7750	1.51246
625.7500	1.51249
625.7250	1.50994
625.7000	1.50899
625.6750	1.5101
625.6500	1.51081
625.6250	1.51076
625.6000	1.51101
625.5750	1.51309
625.5500	1.51371
625.5250	1.51604
625.5000	1.51376
625.4750	1.51406
625.4500	1.51785
625.4250	1.5143
625.4000	1.51542
625.3750	1.51421
625.3500	1.51275
625.3250	1.51407
625.3000	1.51041
625.2750	1.51019
625.2500	1.50672
625.2250	1.50334
625.2000	1.50074
625.1750	1.5017
625.1500	1.50117
625.1250	1.501
625.1000	1.50411
625.0750	1.50706
625.0500	1.50945
625.0250	1.5093
625.0000	1.5074
624.9750	1.5073
624.9500	1.50419
624.9250	1.50627
624.9000	1.50563
624.8750	1.50246
624.8500	1.5037
624.8250	1.50402
624.8000	1.50526
624.7750	1.50558
624.7500	1.50368
624.7250	1.50253
624.7000	1.50057
624.6750	1.50118
624.6500	1.49857
624.6250	1.49984
624.6000	1.50028
624.5750	1.50255
624.5500	1.50371
624.5250	1.50777
624.5000	1.5086
624.4750	1.51072
624.4500	1.51064
624.4250	1.51082
624.4000	1.50804
624.3750	1.50787
624.3500	1.5084
624.3250	1.50476
624.3000	1.50489
624.2750	1.5063
624.2500	1.50704
624.2250	1.50518
624.2000	1.50275
624.1750	1.50237
624.1500	1.50141
624.1250	1.50269
624.1000	1.50058
624.0750	1.50289
624.0500	1.50553
624.0250	1.50404
624.0000	1.50547
623.9750	1.50313
623.9500	1.50552
623.9250	1.50684
623.9000	1.50599
623.8750	1.50547
623.8500	1.50835
623.8250	1.51205
623.8000	1.51342
623.7750	1.51102
623.7500	1.51138
623.7250	1.51419
623.7000	1.51549
623.6750	1.51233
623.6500	1.50981
623.6250	1.50876
623.6000	1.50868
623.5750	1.50772
623.5500	1.50683
623.5250	1.50602
623.5000	1.50709
623.4750	1.50705
623.4500	1.50819
623.4250	1.5059
623.4000	1.50398
623.3750	1.50255
623.3500	1.50276
623.3250	1.50242
623.3000	1.50153
623.2750	1.50466
623.2500	1.50609
623.2250	1.50726
623.2000	1.51053
623.1750	1.51009
623.1500	1.51148
623.1250	1.51349
623.1000	1.51549
623.0750	1.51916
623.0500	1.51452
623.0250	1.51488
623.0000	1.51451
622.9750	1.5147
622.9500	1.50899
622.9250	1.50886
622.9000	1.50927
622.8750	1.51245
622.8500	1.51293
622.8250	1.51321
622.8000	1.51645
622.7750	1.51854
622.7500	1.51738
622.7250	1.51776
622.7000	1.51544
622.6750	1.52028
622.6500	1.51947
622.6250	1.5162
622.6000	1.51509
622.5750	1.51302
622.5500	1.51537
622.5250	1.51046
622.5000	1.50639
622.4750	1.50647
622.4500	1.50659
622.4250	1.50638
622.4000	1.50697
622.3750	1.50497
622.3500	1.50514
622.3250	1.50976
622.3000	1.50751
622.2750	1.50753
622.2500	1.50762
622.2250	1.51318
622.2000	1.51688
622.1750	1.51483
622.1500	1.51375
622.1250	1.51421
622.1000	1.51303
622.0750	1.51192
622.0500	1.51112
622.0250	1.51033
622.0000	1.51284
621.9750	1.51431
621.9500	1.51544
621.9250	1.51421
621.9000	1.5124
621.8750	1.51219
621.8500	1.51288
621.8250	1.50851
621.8000	1.50893
621.7750	1.51057
621.7500	1.51125
621.7250	1.51186
621.7000	1.51315
621.6750	1.51138
621.6500	1.51198
621.6250	1.512
621.6000	1.50983
621.5750	1.50794
621.5500	1.50837
621.5250	1.50733
621.5000	1.50854
621.4750	1.5068
621.4500	1.50761
621.4250	1.50695
621.4000	1.50776
621.3750	1.50684
621.3500	1.50598
621.3250	1.50578
621.3000	1.50591
621.2750	1.50794
621.2500	1.50773
621.2250	1.50907
621.2000	1.50783
621.1750	1.50428
621.1500	1.50516
621.1250	1.50536
621.1000	1.50293
621.0750	1.50523
621.0500	1.50778
621.0250	1.51119
621.0000	1.51108
620.9750	1.50858
620.9500	1.51166
620.9250	1.50732
620.9000	1.5044
620.8750	1.50465
620.8500	1.50508
620.8250	1.50597
620.8000	1.50615
620.7750	1.50439
620.7500	1.50311
620.7250	1.50327
620.7000	1.50217
620.6750	1.5045
620.6500	1.50276
620.6250	1.50628
620.6000	1.5101
620.5750	1.51013
620.5500	1.51114
620.5250	1.50941
620.5000	1.51218
620.4750	1.51392
620.4500	1.51172
620.4250	1.51442
620.4000	1.51346
620.3750	1.51132
620.3500	1.51013
620.3250	1.50675
620.3000	1.50543
620.2750	1.50237
620.2500	1.50038
620.2250	1.50025
620.2000	1.50095
620.1750	1.49981
620.1500	1.50108
620.1250	1.50122
620.1000	1.50252
620.0750	1.5051
620.0500	1.50711
620.0250	1.50735
620.0000	1.50413
619.9750	1.50308
619.9500	1.5041
619.9250	1.50814
619.9000	1.50393
619.8750	1.50297
619.8500	1.50439
619.8250	1.50603
619.8000	1.50818
619.7750	1.50833
619.7500	1.51039
619.7250	1.51262
619.7000	1.51037
619.6750	1.51173
619.6500	1.51069
619.6250	1.50865
619.6000	1.50867
619.5750	1.50759
619.5500	1.50934
619.5250	1.50825
619.5000	1.50881
619.4750	1.51024
619.4500	1.50842
619.4250	1.50996
619.4000	1.50653
619.3750	1.50499
619.3500	1.50362
619.3250	1.50592
619.3000	1.50498
619.2750	1.50425
619.2500	1.50466
619.2250	1.50602
619.2000	1.50818
619.1750	1.50514
619.1500	1.506
619.1250	1.50672
619.1000	1.50518
619.0750	1.50472
619.0500	1.50204
619.0250	1.50363
619.0000	1.50335
618.9750	1.50403
618.9500	1.50324
618.9250	1.50587
618.9000	1.50908
618.8750	1.50985
618.8500	1.51083
618.8250	1.50835
618.8000	1.50796
618.7750	1.50822
618.7500	1.50736
618.7250	1.50449
618.7000	1.50453
618.6750	1.50578
618.6500	1.5074
618.6250	1.5111
618.6000	1.51081
618.5750	1.51
618.5500	1.50988
618.5250	1.5102
618.5000	1.51196
618.4750	1.50958
618.4500	1.50625
618.4250	1.50844
618.4000	1.51043
618.3750	1.51286
618.3500	1.51031
618.3250	1.51226
618.3000	1.51272
618.2750	1.51341
618.2500	1.51264
618.2250	1.51144
618.2000	1.50941
618.1750	1.50803
618.1500	1.50867
618.1250	1.50771
618.1000	1.50682
618.0750	1.50916
618.0500	1.51187
618.0250	1.51277
618.0000	1.51211
617.9750	1.51039
617.9500	1.51329
617.9250	1.51185
617.9000	1.50607
617.8750	1.50675
617.8500	1.50661
617.8250	1.5073
617.8000	1.50387
617.7750	1.50547
617.7500	1.50841
617.7250	1.5093
617.7000	1.50758
617.6750	1.50651
617.6500	1.50924
617.6250	1.50647
617.6000	1.50513
617.5750	1.50124
617.5500	1.50085
617.5250	1.50055
617.5000	1.50027
617.4750	1.50163
617.4500	1.50171
617.4250	1.50004
617.4000	1.50291
617.3750	1.5022
617.3500	1.50375
617.3250	1.50184
617.3000	1.50215
617.2750	1.50111
617.2500	1.50124
617.2250	1.49705
617.2000	1.49608
617.1750	1.49462
617.1500	1.49219
617.1250	1.49411
617.1000	1.49422
617.0750	1.49672
617.0500	1.49885
617.0250	1.50036
617.0000	1.50199
616.9750	1.50127
616.9500	1.50043
616.9250	1.50157
616.9000	1.50112
616.8750	1.49933
616.8500	1.49964
616.8250	1.49862
616.8000	1.49991
616.7750	1.50049
616.7500	1.50043
616.7250	1.50051
616.7000	1.4972
616.6750	1.49691
616.6500	1.49545
616.6250	1.49453
616.6000	1.49356
616.5750	1.49465
616.5500	1.49456
616.5250	1.49455
616.5000	1.49495
616.4750	1.49635
616.4500	1.49678
616.4250	1.49509
616.4000	1.4955
616.3750	1.49674
616.3500	1.49643
616.3250	1.49387
616.3000	1.49412
616.2750	1.49526
616.2500	1.49657
616.2250	1.49635
616.2000	1.49447
616.1750	1.49446
616.1500	1.49435
616.1250	1.49368
616.1000	1.48988
616.0750	1.48975
616.0500	1.4933
616.0250	1.49516
616.0000	1.49105
615.9750	1.48761
615.9500	1.48839
615.9250	1.49207
615.9000	1.49083
615.8750	1.48731
615.8500	1.49045
615.8250	1.49504
615.8000	1.49656
615.7750	1.49745
615.7500	1.49684
615.7250	1.49638
615.7000	1.49534
615.6750	1.49027
615.6500	1.48837
615.6250	1.48628
615.6000	1.48534
615.5750	1.4835
615.5500	1.48526
615.5250	1.49177
615.5000	1.49032
615.4750	1.49334
615.4500	1.49432
615.4250	1.49336
615.4000	1.49266
615.3750	1.48871
615.3500	1.48919
615.3250	1.48866
615.3000	1.48897
615.2750	1.49062
615.2500	1.49432
615.2250	1.49348
615.2000	1.49457
615.1750	1.4944
615.1500	1.49508
615.1250	1.49384
615.1000	1.49463
615.0750	1.49416
615.0500	1.49167
615.0250	1.49002
615.0000	1.49321
614.9750	1.49237
614.9500	1.49291
614.9250	1.49453
614.9000	1.49522
614.8750	1.49554
614.8500	1.49497
614.8250	1.49507
614.8000	1.49615
614.7750	1.49723
614.7500	1.49535
614.7250	1.4946
614.7000	1.49452
614.6750	1.49516
614.6500	1.49439
614.6250	1.49069
614.6000	1.49158
614.5750	1.49261
614.5500	1.49483
614.5250	1.49829
614.5000	1.49745
614.4750	1.49985
614.4500	1.49739
614.4250	1.49875
614.4000	1.49759
614.3750	1.49785
614.3500	1.49778
614.3250	1.49658
614.3000	1.49633
614.2750	1.49685
614.2500	1.49697
614.2250	1.49516
614.2000	1.49246
614.1750	1.48895
614.1500	1.4916
614.1250	1.49327
614.1000	1.49446
614.0750	1.49504
614.0500	1.49514
614.0250	1.49758
614.0000	1.49728
613.9750	1.49808
613.9500	1.49633
613.9250	1.49447
613.9000	1.49469
613.8750	1.48826
613.8500	1.48783
613.8250	1.489
613.8000	1.48429
613.7750	1.48606
613.7500	1.48584
613.7250	1.48733
613.7000	1.48732
613.6750	1.48525
613.6500	1.48891
613.6250	1.48704
613.6000	1.48994
613.5750	1.49241
613.5500	1.49109
613.5250	1.49546
613.5000	1.49398
613.4750	1.49445
613.4500	1.4946
613.4250	1.49226
613.4000	1.49392
613.3750	1.49305
613.3500	1.49244
613.3250	1.49076
613.3000	1.49028
613.2750	1.49043
613.2500	1.48898
613.2250	1.48953
613.2000	1.48856
613.1750	1.48895
613.1500	1.48878
613.1250	1.48978
613.1000	1.48643
613.0750	1.48967
613.0500	1.48978
613.0250	1.48917
613.0000	1.49179
612.9750	1.48964
612.9500	1.48826
612.9250	1.4866
612.9000	1.4859
612.8750	1.48327
612.8500	1.48156
612.8250	1.47935
612.8000	1.47897
612.7750	1.48095
612.7500	1.48201
612.7250	1.48164
612.7000	1.48217
612.6750	1.48384
612.6500	1.48581
612.6250	1.48284
612.6000	1.48437
612.5750	1.48415
612.5500	1.48664
612.5250	1.48899
612.5000	1.48913
612.4750	1.48899
612.4500	1.48845
612.4250	1.48771
612.4000	1.48643
612.3750	1.48365
612.3500	1.48485
612.3250	1.48548
612.3000	1.48565
612.2750	1.48446
612.2500	1.48464
612.2250	1.48306
612.2000	1.47942
612.1750	1.47931
612.1500	1.48067
612.1250	1.4776
612.1000	1.47922
612.0750	1.48065
612.0500	1.48262
612.0250	1.4835
612.0000	1.48159
611.9750	1.48154
611.9500	1.48122
611.9250	1.47985
611.9000	1.48208
611.8750	1.48412
611.8500	1.48925
611.8250	1.49013
611.8000	1.49072
611.7750	1.4911
611.7500	1.49306
611.7250	1.49166
611.7000	1.48988
611.6750	1.48872
611.6500	1.48664
611.6250	1.48505
611.6000	1.48892
611.5750	1.48636
611.5500	1.48864
611.5250	1.48944
611.5000	1.48875
611.4750	1.48996
611.4500	1.49024
611.4250	1.48972
611.4000	1.48691
611.3750	1.48329
611.3500	1.48509
611.3250	1.48974
611.3000	1.48852
611.2750	1.48841
611.2500	1.49208
611.2250	1.49423
611.2000	1.49432
611.1750	1.49487
611.1500	1.49675
611.1250	1.49485
611.1000	1.49771
611.0750	1.49497
611.0500	1.4938
611.0250	1.49549
611.0000	1.49711
610.9750	1.49965
610.9500	1.49728
610.9250	1.49964
610.9000	1.50323
610.8750	1.50188
610.8500	1.49805
610.8250	1.49314
610.8000	1.49317
610.7750	1.49351
610.7500	1.49144
610.7250	1.49036
610.7000	1.49372
610.6750	1.49184
610.6500	1.49391
610.6250	1.49593
610.6000	1.49751
610.5750	1.49678
610.5500	1.49602
610.5250	1.4964
610.5000	1.49706
610.4750	1.4978
610.4500	1.4962
610.4250	1.4994
610.4000	1.50024
610.3750	1.49941
610.3500	1.50193
610.3250	1.49986
610.3000	1.49947
610.2750	1.49472
610.2500	1.49401
610.2250	1.49459
610.2000	1.49355
610.1750	1.49383
610.1500	1.49638
610.1250	1.49504
610.1000	1.49451
610.0750	1.4937
610.0500	1.49474
610.0250	1.49708
610.0000	1.49721
609.9750	1.4949
609.9500	1.49881
609.9250	1.50003
609.9000	1.49638
609.8750	1.49436
609.8500	1.49405
609.8250	1.49517
609.8000	1.49318
609.7750	1.49547
609.7500	1.49194
609.7250	1.49473
609.7000	1.49441
609.6750	1.49038
609.6500	1.49027
609.6250	1.49134
609.6000	1.48821
609.5750	1.48998
609.5500	1.48977
609.5250	1.4897
609.5000	1.49544
609.4750	1.49251
609.4500	1.49303
609.4250	1.49429
609.4000	1.49659
609.3750	1.4936
609.3500	1.49136
609.3250	1.49289
609.3000	1.49181
609.2750	1.49071
609.2500	1.49206
609.2250	1.4895
609.2000	1.48969
609.1750	1.48904
609.1500	1.49017
609.1250	1.49144
609.1000	1.4899
609.0750	1.49202
609.0500	1.49106
609.0250	1.49078
609.0000	1.49081
608.9750	1.49006
608.9500	1.49019
608.9250	1.4879
608.9000	1.48935
608.8750	1.48901
608.8500	1.48862
608.8250	1.49065
608.8000	1.48892
608.7750	1.49068
608.7500	1.49215
608.7250	1.49124
608.7000	1.49462
608.6750	1.49195
608.6500	1.49369
608.6250	1.49152
608.6000	1.49119
608.5750	1.48742
608.5500	1.48723
608.5250	1.48693
608.5000	1.48708
608.4750	1.48892
608.4500	1.48957
608.4250	1.4887
608.4000	1.49222
608.3750	1.49145
608.3500	1.49038
608.3250	1.48733
608.3000	1.48948
608.2750	1.4892
608.2500	1.4911
608.2250	1.48877
608.2000	1.48697
608.1750	1.48879
608.1500	1.48942
608.1250	1.4878
608.1000	1.48906
608.0750	1.48731
608.0500	1.48868
608.0250	1.48446
608.0000	1.48544
607.9750	1.48265
607.9500	1.48409
607.9250	1.4853
607.9000	1.483
607.8750	1.48336
607.8500	1.4859
607.8250	1.48641
607.8000	1.48429
607.7750	1.48391
607.7500	1.4842
607.7250	1.48361
607.7000	1.48352
607.6750	1.4817
607.6500	1.48109
607.6250	1.4812
607.6000	1.48099
607.5750	1.48241
607.5500	1.48209
607.5250	1.48523
607.5000	1.48543
607.4750	1.48048
607.4500	1.48242
607.4250	1.48537
607.4000	1.48395
607.3750	1.48383
607.3500	1.48374
607.3250	1.48233
607.3000	1.48064
607.2750	1.4793
607.2500	1.47893
607.2250	1.47921
607.2000	1.48138
607.1750	1.483
607.1500	1.48622
607.1250	1.48826
607.1000	1.49021
607.0750	1.49217
607.0500	1.4899
607.0250	1.48965
607.0000	1.49224
606.9750	1.49021
606.9500	1.4918
606.9250	1.48781
606.9000	1.48877
606.8750	1.49072
606.8500	1.49188
606.8250	1.48859
606.8000	1.48912
606.7750	1.48832
606.7500	1.4912
606.7250	1.49094
606.7000	1.49113
606.6750	1.49079
606.6500	1.49352
606.6250	1.49247
606.6000	1.49393
606.5750	1.49306
606.5500	1.49136
606.5250	1.49045
606.5000	1.49124
606.4750	1.49153
606.4500	1.49136
606.4250	1.49087
606.4000	1.49097
606.3750	1.49372
606.3500	1.49351
606.3250	1.48772
606.3000	1.48916
606.2750	1.48787
606.2500	1.48628
606.2250	1.48339
606.2000	1.48123
606.1750	1.48081
606.1500	1.48041
606.1250	1.47983
606.1000	1.478
606.0750	1.47924
606.0500	1.47913
606.0250	1.47922
606.0000	1.4815
605.9750	1.48262
605.9500	1.48528
605.9250	1.48932
605.9000	1.49089
605.8750	1.48946
605.8500	1.49019
605.8250	1.49026
605.8000	1.49036
605.7750	1.48805
605.7500	1.48753
605.7250	1.48963
605.7000	1.48838
605.6750	1.48756
605.6500	1.48586
605.6250	1.48728
605.6000	1.48799
605.5750	1.48622
605.5500	1.48388
605.5250	1.48334
605.5000	1.48342
605.4750	1.48208
605.4500	1.4799
605.4250	1.47963
605.4000	1.48083
605.3750	1.48042
605.3500	1.48187
605.3250	1.47908
605.3000	1.47859
605.2750	1.47644
605.2500	1.47689
605.2250	1.47525
605.2000	1.47396
605.1750	1.47423
605.1500	1.47524
605.1250	1.47495
605.1000	1.47301
605.0750	1.47495
605.0500	1.47463
605.0250	1.47411
605.0000	1.47315
604.9750	1.47425
604.9500	1.47568
604.9250	1.47795
604.9000	1.47837
604.8750	1.47832
604.8500	1.47879
604.8250	1.47945
604.8000	1.47524
604.7750	1.47431
604.7500	1.47148
604.7250	1.4706
604.7000	1.47226
604.6750	1.47328
604.6500	1.47388
604.6250	1.47353
604.6000	1.47315
604.5750	1.47343
604.5500	1.47415
604.5250	1.47238
604.5000	1.47181
604.4750	1.47136
604.4500	1.47385
604.4250	1.47615
604.4000	1.47605
604.3750	1.47654
604.3500	1.47538
604.3250	1.47466
604.3000	1.47248
604.2750	1.47089
604.2500	1.4673
604.2250	1.46857
604.2000	1.46555
604.1750	1.46517
604.1500	1.46754
604.1250	1.47133
604.1000	1.4735
604.0750	1.47087
604.0500	1.47163
604.0250	1.47193
604.0000	1.47174
603.9750	1.47049
603.9500	1.46909
603.9250	1.4678
603.9000	1.47054
603.8750	1.46872
603.8500	1.4673
603.8250	1.47107
603.8000	1.47007
603.7750	1.4693
603.7500	1.46989
603.7250	1.46904
603.7000	1.46781
603.6750	1.46651
603.6500	1.46356
603.6250	1.4625
603.6000	1.46143
603.5750	1.46296
603.5500	1.46374
603.5250	1.46517
603.5000	1.468
603.4750	1.46902
603.4500	1.46913
603.4250	1.46691
603.4000	1.46386
603.3750	1.46567
603.3500	1.46458
603.3250	1.46576
603.3000	1.46924
603.2750	1.47141
603.2500	1.47575
603.2250	1.47629
603.2000	1.47846
603.1750	1.47924
603.1500	1.47948
603.1250	1.47532
603.1000	1.47948
603.0750	1.48036
603.0500	1.47943
603.0250	1.48002
603.0000	1.47995
602.9750	1.48116
602.9500	1.48118
602.9250	1.47837
602.9000	1.47955
602.8750	1.47975
602.8500	1.47777
602.8250	1.47893
602.8000	1.47525
602.7750	1.47531
602.7500	1.47815
602.7250	1.47501
602.7000	1.47748
602.6750	1.47339
602.6500	1.47437
602.6250	1.47404
602.6000	1.4718
602.5750	1.47406
602.5500	1.47438
602.5250	1.47535
602.5000	1.47627
602.4750	1.47722
602.4500	1.47814
602.4250	1.47532
602.4000	1.47414
602.3750	1.47527
602.3500	1.47399
602.3250	1.46858
602.3000	1.47045
602.2750	1.47366
602.2500	1.47229
602.2250	1.47151
602.2000	1.47223
602.1750	1.46976
602.1500	1.46996
602.1250	1.47117
602.1000	1.47172
602.0750	1.47448
602.0500	1.47495
602.0250	1.47707
602.0000	1.47668
601.9750	1.47509
601.9500	1.47312
601.9250	1.47348
601.9000	1.47376
601.8750	1.47084
601.8500	1.47348
601.8250	1.47382
601.8000	1.473
601.7750	1.47229
601.7500	1.46919
601.7250	1.46911
601.7000	1.46992
601.6750	1.46881
601.6500	1.4698
601.6250	1.46947
601.6000	1.47222
601.5750	1.47573
601.5500	1.47528
601.5250	1.4766
601.5000	1.47604
601.4750	1.47665
601.4500	1.47678
601.4250	1.47513
601.4000	1.4747
601.3750	1.47421
601.3500	1.47506
601.3250	1.47404
601.3000	1.47162
601.2750	1.47413
601.2500	1.4746
601.2250	1.47488
601.2000	1.47585
601.1750	1.47397
601.1500	1.47473
601.1250	1.47164
601.1000	1.47033
601.0750	1.46963
601.0500	1.46825
601.0250	1.46969
601.0000	1.46592
600.9750	1.47154
600.9500	1.47208
600.9250	1.46951
600.9000	1.47181
600.8750	1.47094
600.8500	1.47032
600.8250	1.472
600.8000	1.46895
600.7750	1.47318
600.7500	1.47231
600.7250	1.47756
600.7000	1.47856
600.6750	1.47474
600.6500	1.4724
600.6250	1.47222
600.6000	1.47308
600.5750	1.47183
600.5500	1.4687
600.5250	1.46723
600.5000	1.46905
600.4750	1.47213
600.4500	1.47087
600.4250	1.46948
600.4000	1.46985
600.3750	1.47159
600.3500	1.47156
600.3250	1.47122
600.3000	1.47142
600.2750	1.47162
600.2500	1.46905
600.2250	1.47139
600.2000	1.46973
600.1750	1.46652
600.1500	1.46539
600.1250	1.46363
600.1000	1.46255
600.0750	1.46197
600.0500	1.46112
600.0250	1.46399
600.0000	1.46475
599.9750	1.4631
599.9500	1.46399
599.9250	1.46388
599.9000	1.46444
599.8750	1.46436
599.8500	1.46682
599.8250	1.46582
599.8000	1.46781
599.7750	1.4702
599.7500	1.47063
599.7250	1.47046
599.7000	1.46867
599.6750	1.4634
599.6500	1.46438
599.6250	1.46277
599.6000	1.4627
599.5750	1.46315
599.5500	1.46364
599.5250	1.46762
599.5000	1.47017
599.4750	1.47079
599.4500	1.4721
599.4250	1.47226
599.4000	1.47333
599.3750	1.47578
599.3500	1.47978
599.3250	1.48172
599.3000	1.48365
599.2750	1.48496
599.2500	1.48495
599.2250	1.4838
599.2000	1.48378
599.1750	1.48096
599.1500	1.48356
599.1250	1.48211
599.1000	1.48141
599.0750	1.48173
599.0500	1.48419
599.0250	1.48496
599.0000	1.48521
598.9750	1.48672
598.9500	1.48744
598.9250	1.48997
598.9000	1.48732
598.8750	1.48364
598.8500	1.48115
598.8250	1.48253
598.8000	1.48421
598.7750	1.4805
598.7500	1.4826
598.7250	1.48217
598.7000	1.48303
598.6750	1.47947
598.6500	1.47662
598.6250	1.47584
598.6000	1.47736
598.5750	1.47619
598.5500	1.47652
598.5250	1.47825
598.5000	1.47999
598.4750	1.48252
598.4500	1.48438
598.4250	1.48237
598.4000	1.48284
598.3750	1.48167
598.3500	1.48188
598.3250	1.47825
598.3000	1.47699
598.2750	1.47599
598.2500	1.47381
598.2250	1.47621
598.2000	1.47596
598.1750	1.47764
598.1500	1.47653
598.1250	1.47707
598.1000	1.47577
598.0750	1.47499
598.0500	1.47491
598.0250	1.47454
598.0000	1.47419
597.9750	1.47295
597.9500	1.47483
597.9250	1.47213
597.9000	1.47479
597.8750	1.47618
597.8500	1.4749
597.8250	1.47763
597.8000	1.47789
597.7750	1.47831
597.7500	1.47847
597.7250	1.47811
597.7000	1.47789
597.6750	1.48035
597.6500	1.48036
597.6250	1.48223
597.6000	1.47824
597.5750	1.47644
597.5500	1.4745
597.5250	1.47498
597.5000	1.47316
597.4750	1.47103
597.4500	1.47307
597.4250	1.47194
597.4000	1.47314
597.3750	1.47206
597.3500	1.47034
597.3250	1.47223
597.3000	1.47262
597.2750	1.46965
597.2500	1.46982
597.2250	1.46497
597.2000	1.46505
597.1750	1.46677
597.1500	1.46681
597.1250	1.46383
597.1000	1.46649
597.0750	1.46897
597.0500	1.47307
597.0250	1.4698
597.0000	1.46876
596.9750	1.46934
596.9500	1.46846
596.9250	1.46769
596.9000	1.46792
596.8750	1.46999
596.8500	1.46958
596.8250	1.46839
596.8000	1.46866
596.7750	1.46762
596.7500	1.4636
596.7250	1.46284
596.7000	1.46129
596.6750	1.46241
596.6500	1.46266
596.6250	1.46299
596.6000	1.46464
596.5750	1.46606
596.5500	1.46306
596.5250	1.46095
596.5000	1.4644
596.4750	1.46292
596.4500	1.4631
596.4250	1.46087
596.4000	1.46249
596.3750	1.4645
596.3500	1.46174
596.3250	1.4613
596.3000	1.45997
596.2750	1.45873
596.2500	1.45764
596.2250	1.45563
596.2000	1.45418
596.1750	1.45494
596.1500	1.45391
596.1250	1.45438
596.1000	1.45531
596.0750	1.45435
596.0500	1.45396
596.0250	1.45704
596.0000	1.45337
595.9750	1.45102
595.9500	1.45126
595.9250	1.44738
595.9000	1.44955
595.8750	1.44882
595.8500	1.44985
595.8250	1.45055
595.8000	1.45007
595.7750	1.45484
595.7500	1.45579
595.7250	1.45381
595.7000	1.45375
595.6750	1.45633
595.6500	1.46006
595.6250	1.46083
595.6000	1.46186
595.5750	1.46494
595.5500	1.4666
595.5250	1.4693
595.5000	1.46967
595.4750	1.47013
595.4500	1.47179
595.4250	1.47238
595.4000	1.47345
595.3750	1.47162
595.3500	1.47103
595.3250	1.47093
595.3000	1.46821
595.2750	1.46789
595.2500	1.4659
595.2250	1.46812
595.2000	1.46845
595.1750	1.47037
595.1500	1.47052
595.1250	1.47229
595.1000	1.47243
595.0750	1.4727
595.0500	1.47117
595.0250	1.47006
595.0000	1.47131
594.9750	1.47046
594.9500	1.47048
594.9250	1.47258
594.9000	1.47478
594.8750	1.474
594.8500	1.47241
594.8250	1.47163
594.8000	1.47249
594.7750	1.47208
594.7500	1.4704
594.7250	1.47147
594.7000	1.47307
594.6750	1.47307
594.6500	1.47231
594.6250	1.4698
594.6000	1.46809
594.5750	1.46649
594.5500	1.46117
594.5250	1.46126
594.5000	1.45859
594.4750	1.46076
594.4500	1.45928
594.4250	1.45885
594.4000	1.45868
594.3750	1.46314
594.3500	1.46608
594.3250	1.46505
594.3000	1.46494
594.2750	1.46462
594.2500	1.46559
594.2250	1.46492
594.2000	1.46369
594.1750	1.45946
594.1500	1.45845
594.1250	1.45828
594.1000	1.45482
594.0750	1.45474
594.0500	1.45234
594.0250	1.45137
594.0000	1.45307
593.9750	1.4553
593.9500	1.45607
593.9250	1.45564
593.9000	1.45378
593.8750	1.45333
593.8500	1.45286
593.8250	1.44933
593.8000	1.44749
593.7750	1.44715
593.7500	1.44805
593.7250	1.45171
593.7000	1.45404
593.6750	1.45593
593.6500	1.45876
593.6250	1.46094
593.6000	1.45957
593.5750	1.46023
593.5500	1.45932
593.5250	1.45783
593.5000	1.45434
593.4750	1.45148
593.4500	1.45371
593.4250	1.4543
593.4000	1.45148
593.3750	1.45317
593.3500	1.45247
593.3250	1.4557
593.3000	1.45547
593.2750	1.45027
593.2500	1.45064
593.2250	1.45105
593.2000	1.45049
593.1750	1.44742
593.1500	1.44701
593.1250	1.44947
593.1000	1.44942
593.0750	1.44761
593.0500	1.44832
593.0250	1.44764
593.0000	1.44718
592.9750	1.44611
592.9500	1.44387
592.9250	1.44296
592.9000	1.44422
592.8750	1.44624
592.8500	1.45053
592.8250	1.45152
592.8000	1.45286
592.7750	1.45284
592.7500	1.45316
592.7250	1.4529
592.7000	1.44789
592.6750	1.44861
592.6500	1.44579
592.6250	1.44622
592.6000	1.44934
592.5750	1.44957
592.5500	1.44562
592.5250	1.44784
592.5000	1.44802
592.4750	1.44562
592.4500	1.44522
592.4250	1.44521
592.4000	1.44675
592.3750	1.44463
592.3500	1.44638
592.3250	1.44829
592.3000	1.44768
592.2750	1.44449
592.2500	1.44346
592.2250	1.44157
592.2000	1.43905
592.1750	1.43636
592.1500	1.43651
592.1250	1.43493
592.1000	1.43614
592.0750	1.43464
592.0500	1.43739
592.0250	1.43913
592.0000	1.43908
591.9750	1.44197
591.9500	1.44387
591.9250	1.44885
591.9000	1.45266
591.8750	1.45146
591.8500	1.45119
591.8250	1.45425
591.8000	1.45621
591.7750	1.45707
591.7500	1.45704
591.7250	1.45503
591.7000	1.45644
591.6750	1.4563
591.6500	1.45844
591.6250	1.45844
591.6000	1.45685
591.5750	1.45688
591.5500	1.45807
591.5250	1.45687
591.5000	1.45567
591.4750	1.45434
591.4500	1.45597
591.4250	1.45456
591.4000	1.45594
591.3750	1.45937
591.3500	1.45751
591.3250	1.45675
591.3000	1.45584
591.2750	1.45434
591.2500	1.45357
591.2250	1.45284
591.2000	1.45297
591.1750	1.45592
591.1500	1.45709
591.1250	1.45749
591.1000	1.45826
591.0750	1.45597
591.0500	1.45148
591.0250	1.44801
591.0000	1.45055
590.9750	1.44722
590.9500	1.44774
590.9250	1.44999
590.9000	1.4557
590.8750	1.45687
590.8500	1.45752
590.8250	1.45735
590.8000	1.45677
590.7750	1.45611
590.7500	1.45342
590.7250	1.45482
590.7000	1.45429
590.6750	1.45611
590.6500	1.45746
590.6250	1.45848
590.6000	1.45609
590.5750	1.45892
590.5500	1.45964
590.5250	1.45856
590.5000	1.45768
590.4750	1.45506
590.4500	1.45454
590.4250	1.45673
590.4000	1.4544
590.3750	1.45512
590.3500	1.45394
590.3250	1.45613
590.3000	1.45892
590.2750	1.4573
590.2500	1.45772
590.2250	1.45727
590.2000	1.4568
590.1750	1.45465
590.1500	1.45421
590.1250	1.45173
590.1000	1.4514
590.0750	1.45264
590.0500	1.4508
590.0250	1.45191
590.0000	1.44947
589.9750	1.44926
589.9500	1.44809
589.9250	1.44692
589.9000	1.44823
589.8750	1.45015
589.8500	1.45249
589.8250	1.45426
589.8000	1.45734
589.7750	1.45449
589.7500	1.45483
589.7250	1.45551
589.7000	1.45229
589.6750	1.45268
589.6500	1.45299
589.6250	1.45206
589.6000	1.4514
589.5750	1.45015
589.5500	1.45009
589.5250	1.44834
589.5000	1.44784
589.4750	1.44694
589.4500	1.44719
589.4250	1.44444
589.4000	1.44289
589.3750	1.44495
589.3500	1.4444
589.3250	1.44178
589.3000	1.44155
589.2750	1.44198
589.2500	1.44518
589.2250	1.44704
589.2000	1.4476
589.1750	1.44909
589.1500	1.44784
589.1250	1.45146
589.1000	1.44696
589.0750	1.44257
589.0500	1.44264
589.0250	1.44132
589.0000	1.44358
588.9750	1.44095
588.9500	1.44317
588.9250	1.44457
588.9000	1.44544
588.8750	1.44685
588.8500	1.44492
588.8250	1.44117
588.8000	1.44294
588.7750	1.44172
588.7500	1.44479
588.7250	1.44493
588.7000	1.44488
588.6750	1.44632
588.6500	1.44495
588.6250	1.4449
588.6000	1.44642
588.5750	1.44303
588.5500	1.4441
588.5250	1.44754
588.5000	1.44906
588.4750	1.44921
588.4500	1.44845
588.4250	1.44832
588.4000	1.4502
588.3750	1.4518
588.3500	1.44891
588.3250	1.4486
588.3000	1.45198
588.2750	1.45352
588.2500	1.45143
588.2250	1.45248
588.2000	1.45528
588.1750	1.45646
588.1500	1.45798
588.1250	1.4549
588.1000	1.45506
588.0750	1.4549
588.0500	1.45454
588.0250	1.45315
588.0000	1.4554
587.9750	1.45644
587.9500	1.45899
587.9250	1.45846
587.9000	1.45947
587.8750	1.4604
587.8500	1.46222
587.8250	1.4632
587.8000	1.46191
587.7750	1.46455
587.7500	1.46425
587.7250	1.46664
587.7000	1.46525
587.6750	1.46681
587.6500	1.46507
587.6250	1.46453
587.6000	1.46254
587.5750	1.46039
587.5500	1.45754
587.5250	1.45651
587.5000	1.45808
587.4750	1.45748
587.4500	1.45836
587.4250	1.45757
587.4000	1.45782
587.3750	1.45764
587.3500	1.45782
587.3250	1.45848
587.3000	1.45615
587.2750	1.45903
587.2500	1.46012
587.2250	1.46106
587.2000	1.45915
587.1750	1.45933
587.1500	1.45954
587.1250	1.45534
587.1000	1.45536
587.0750	1.45639
587.0500	1.45482
587.0250	1.45283
587.0000	1.45432
586.9750	1.45351
586.9500	1.4526
586.9250	1.45305
586.9000	1.45212
586.8750	1.45482
586.8500	1.45511
586.8250	1.4548
586.8000	1.45652
586.7750	1.45824
586.7500	1.45504
586.7250	1.45196
586.7000	1.45002
586.6750	1.44511
586.6500	1.44415
586.6250	1.43952
586.6000	1.43913
586.5750	1.44035
586.5500	1.44028
586.5250	1.44337
586.5000	1.44665
586.4750	1.44536
586.4500	1.44517
586.4250	1.44743
586.4000	1.44651
586.3750	1.45039
586.3500	1.4474
586.3250	1.44948
586.3000	1.4525
586.2750	1.45149
586.2500	1.45187
586.2250	1.44761
586.2000	1.44772
586.1750	1.44816
586.1500	1.44635
586.1250	1.44567
586.1000	1.44241
586.0750	1.44164
586.0500	1.44281
586.0250	1.44163
586.0000	1.4382
585.9750	1.43742
585.9500	1.43995
585.9250	1.44232
585.9000	1.44295
585.8750	1.44278
585.8500	1.44563
585.8250	1.44521
585.8000	1.44473
585.7750	1.4433
585.7500	1.44178
585.7250	1.44141
585.7000	1.44017
585.6750	1.43749
585.6500	1.4394
585.6250	1.439
585.6000	1.43977
585.5750	1.43622
585.5500	1.43472
585.5250	1.43376
585.5000	1.43471
585.4750	1.43537
585.4500	1.43392
585.4250	1.43461
585.4000	1.43747
585.3750	1.43679
585.3500	1.43654
585.3250	1.4339
585.3000	1.43129
585.2750	1.42901
585.2500	1.42726
585.2250	1.42441
585.2000	1.42454
585.1750	1.42646
585.1500	1.42905
585.1250	1.43014
585.1000	1.43264
585.0750	1.43617
585.0500	1.43515
585.0250	1.43455
585.0000	1.43445
584.9750	1.43679
584.9500	1.43593
584.9250	1.43428
584.9000	1.43454
584.8750	1.43552
584.8500	1.4349
584.8250	1.43467
584.8000	1.43486
584.7750	1.43363
584.7500	1.43277
584.7250	1.43199
584.7000	1.43425
584.6750	1.43345
584.6500	1.43621
584.6250	1.43869
584.6000	1.44082
584.5750	1.44479
584.5500	1.44456
584.5250	1.44645
584.5000	1.44752
584.4750	1.44499
584.4500	1.44845
584.4250	1.45065
584.4000	1.45015
584.3750	1.45015
584.3500	1.4519
584.3250	1.44852
584.3000	1.44805
584.2750	1.44702
584.2500	1.44425
584.2250	1.44405
584.2000	1.44289
584.1750	1.4438
584.1500	1.44666
584.1250	1.44602
584.1000	1.44398
584.0750	1.44378
584.0500	1.44218
584.0250	1.44043
584.0000	1.43921
583.9750	1.43901
583.9500	1.43984
583.9250	1.44052
583.9000	1.44099
583.8750	1.43965
583.8500	1.43891
583.8250	1.44115
583.8000	1.44044
583.7750	1.43845
583.7500	1.44035
583.7250	1.44122
583.7000	1.44272
583.6750	1.4395
583.6500	1.44144
583.6250	1.43795
583.6000	1.43853
583.5750	1.436
583.5500	1.4381
583.5250	1.43831
583.5000	1.43839
583.4750	1.43848
583.4500	1.43865
583.4250	1.43859
583.4000	1.43769
583.3750	1.43593
583.3500	1.43743
583.3250	1.43668
583.3000	1.4351
583.2750	1.43306
583.2500	1.43338
583.2250	1.43679
583.2000	1.4325
583.1750	1.43094
583.1500	1.43299
583.1250	1.43305
583.1000	1.43244
583.0750	1.42886
583.0500	1.4308
583.0250	1.43301
583.0000	1.43013
582.9750	1.43274
582.9500	1.43136
582.9250	1.43016
582.9000	1.42861
582.8750	1.42783
582.8500	1.42746
582.8250	1.4261
582.8000	1.42365
582.7750	1.42728
582.7500	1.42626
582.7250	1.42424
582.7000	1.42619
582.6750	1.42371
582.6500	1.42688
582.6250	1.42524
582.6000	1.42617
582.5750	1.42767
582.5500	1.42921
582.5250	1.42818
582.5000	1.42489
582.4750	1.42494
582.4500	1.42654
582.4250	1.42453
582.4000	1.42177
582.3750	1.42103
582.3500	1.4221
582.3250	1.42248
582.3000	1.42264
582.2750	1.4227
582.2500	1.4225
582.2250	1.42438
582.2000	1.4254
582.1750	1.4231
582.1500	1.42244
582.1250	1.42228
582.1000	1.42383
582.0750	1.42434
582.0500	1.42263
582.0250	1.42196
582.0000	1.42391
581.9750	1.42345
581.9500	1.42254
581.9250	1.42328
581.9000	1.42073
581.8750	1.42001
581.8500	1.42382
581.8250	1.42305
581.8000	1.42187
581.7750	1.42165
581.7500	1.42444
581.7250	1.42762
581.7000	1.42264
581.6750	1.41936
581.6500	1.42269
581.6250	1.42341
581.6000	1.42337
581.5750	1.42047
581.5500	1.42155
581.5250	1.42605
581.5000	1.42524
581.4750	1.42298
581.4500	1.42516
581.4250	1.4248
581.4000	1.42521
581.3750	1.4228
581.3500	1.42118
581.3250	1.4214
581.3000	1.42003
581.2750	1.42184
581.2500	1.42429
581.2250	1.42759
581.2000	1.43028
581.1750	1.43493
581.1500	1.43555
581.1250	1.43634
581.1000	1.43792
581.0750	1.43852
581.0500	1.43805
581.0250	1.43644
581.0000	1.4373
580.9750	1.43838
580.9500	1.43863
580.9250	1.43863
580.9000	1.43928
580.8750	1.43917
580.8500	1.44076
580.8250	1.44316
580.8000	1.44091
580.7750	1.44311
580.7500	1.44107
580.7250	1.44312
580.7000	1.44451
580.6750	1.44351
580.6500	1.44249
580.6250	1.44182
580.6000	1.44142
580.5750	1.44107
580.5500	1.44072
580.5250	1.4393
580.5000	1.43899
580.4750	1.4399
580.4500	1.43948
580.4250	1.43861
580.4000	1.43847
580.3750	1.44031
580.3500	1.43771
580.3250	1.43518
580.3000	1.43529
580.2750	1.43544
580.2500	1.4385
580.2250	1.43701
580.2000	1.43971
580.1750	1.44046
580.1500	1.43872
580.1250	1.43944
580.1000	1.43658
580.0750	1.43554
580.0500	1.43644
580.0250	1.43819
580.0000	1.43711
579.9750	1.4376
579.9500	1.43851
579.9250	1.43945
579.9000	1.4386
579.8750	1.43934
579.8500	1.43663
579.8250	1.43432
579.8000	1.43484
579.7750	1.43442
579.7500	1.43155
579.7250	1.43059
579.7000	1.43306
579.6750	1.43411
579.6500	1.43651
579.6250	1.43479
579.6000	1.43457
579.5750	1.43385
579.5500	1.43359
579.5250	1.43558
579.5000	1.43531
579.4750	1.43404
579.4500	1.43584
579.4250	1.43619
579.4000	1.43615
579.3750	1.4346
579.3500	1.4347
579.3250	1.43761
579.3000	1.43197
579.2750	1.4336
579.2500	1.43185
579.2250	1.43293
579.2000	1.42975
579.1750	1.42947
579.1500	1.4312
579.1250	1.43468
579.1000	1.43352
579.0750	1.43282
579.0500	1.43412
579.0250	1.43277
579.0000	1.4292
578.9750	1.42686
578.9500	1.42418
578.9250	1.42669
578.9000	1.42477
578.8750	1.42396
578.8500	1.42407
578.8250	1.42763
578.8000	1.4268
578.7750	1.42395
578.7500	1.42198
578.7250	1.41902
578.7000	1.42043
578.6750	1.41848
578.6500	1.42116
578.6250	1.42087
578.6000	1.42285
578.5750	1.42544
578.5500	1.42487
578.5250	1.42322
578.5000	1.41927
578.4750	1.42042
578.4500	1.4213
578.4250	1.42244
578.4000	1.42569
578.3750	1.42834
578.3500	1.43091
578.3250	1.43095
578.3000	1.42929
578.2750	1.42916
578.2500	1.42521
578.2250	1.42441
578.2000	1.42064
578.1750	1.41821
578.1500	1.42059
578.1250	1.4195
578.1000	1.41989
578.0750	1.4165
578.0500	1.41538
578.0250	1.41804
578.0000	1.41719
577.9750	1.41822
577.9500	1.41737
577.9250	1.42239
577.9000	1.4256
577.8750	1.42449
577.8500	1.42813
577.8250	1.43236
577.8000	1.43431
577.7750	1.4355
577.7500	1.43416
577.7250	1.4367
577.7000	1.4374
577.6750	1.43413
577.6500	1.43099
577.6250	1.43066
577.6000	1.43092
577.5750	1.4307
577.5500	1.42983
577.5250	1.43197
577.5000	1.43483
577.4750	1.43505
577.4500	1.43374
577.4250	1.43465
577.4000	1.43551
577.3750	1.43818
577.3500	1.43472
577.3250	1.43917
577.3000	1.43752
577.2750	1.43907
577.2500	1.43983
577.2250	1.43966
577.2000	1.44188
577.1750	1.44097
577.1500	1.44024
577.1250	1.4388
577.1000	1.43975
577.0750	1.43885
577.0500	1.43511
577.0250	1.4346
577.0000	1.43082
576.9750	1.43
576.9500	1.42854
576.9250	1.43026
576.9000	1.43085
576.8750	1.43137
576.8500	1.43364
576.8250	1.43805
576.8000	1.43856
576.7750	1.43893
576.7500	1.44033
576.7250	1.43698
576.7000	1.43419
576.6750	1.43455
576.6500	1.43182
576.6250	1.42896
576.6000	1.4313
576.5750	1.42936
576.5500	1.42956
576.5250	1.43026
576.5000	1.42809
576.4750	1.42549
576.4500	1.42252
576.4250	1.42333
576.4000	1.42563
576.3750	1.42678
576.3500	1.42653
576.3250	1.4268
576.3000	1.42829
576.2750	1.43016
576.2500	1.42464
576.2250	1.42097
576.2000	1.42234
576.1750	1.42478
576.1500	1.42272
576.1250	1.42264
576.1000	1.42402
576.0750	1.42763
576.0500	1.42675
576.0250	1.42438
576.0000	1.4225
575.9750	1.42369
575.9500	1.42267
575.9250	1.41729
575.9000	1.41601
575.8750	1.41648
575.8500	1.41772
575.8250	1.41567
575.8000	1.41554
575.7750	1.41837
575.7500	1.41983
575.7250	1.41906
575.7000	1.41787
575.6750	1.41682
575.6500	1.41375
575.6250	1.40991
575.6000	1.41095
575.5750	1.41132
575.5500	1.40873
575.5250	1.40899
575.5000	1.41223
575.4750	1.4144
575.4500	1.41589
575.4250	1.41708
575.4000	1.41726
575.3750	1.41955
575.3500	1.41785
575.3250	1.41462
575.3000	1.41329
575.2750	1.41316
575.2500	1.41411
575.2250	1.41602
575.2000	1.41382
575.1750	1.41396
575.1500	1.41462
575.1250	1.41115
575.1000	1.41059
575.0750	1.40813
575.0500	1.40575
575.0250	1.40586
575.0000	1.40421
574.9750	1.40418
574.9500	1.40209
574.9250	1.40338
574.9000	1.40494
574.8750	1.40263
574.8500	1.40316
574.8250	1.40334
574.8000	1.40628
574.7750	1.4071
574.7500	1.40714
574.7250	1.41237
574.7000	1.41518
574.6750	1.41594
574.6500	1.41858
574.6250	1.41859
574.6000	1.41933
574.5750	1.41582
574.5500	1.41559
574.5250	1.41523
574.5000	1.41402
574.4750	1.41656
574.4500	1.41488
574.4250	1.41722
574.4000	1.41647
574.3750	1.41929
574.3500	1.4203
574.3250	1.42108
574.3000	1.42264
574.2750	1.4202
574.2500	1.42118
574.2250	1.41979
574.2000	1.42113
574.1750	1.42151
574.1500	1.42159
574.1250	1.42211
574.1000	1.42536
574.0750	1.42466
574.0500	1.4267
574.0250	1.42407
574.0000	1.42501
573.9750	1.42296
573.9500	1.42196
573.9250	1.42399
573.9000	1.42336
573.8750	1.42527
573.8500	1.423
573.8250	1.42433
573.8000	1.4251
573.7750	1.42343
573.7500	1.42444
573.7250	1.42115
573.7000	1.42189
573.6750	1.42131
573.6500	1.42013
573.6250	1.4207
573.6000	1.42109
573.5750	1.4211
573.5500	1.42093
573.5250	1.4214
573.5000	1.42253
573.4750	1.42116
573.4500	1.42323
573.4250	1.42084
573.4000	1.41881
573.3750	1.42017
573.3500	1.41885
573.3250	1.41592
573.3000	1.41352
573.2750	1.4119
573.2500	1.4141
573.2250	1.41024
573.2000	1.40717
573.1750	1.408
573.1500	1.41188
573.1250	1.41209
573.1000	1.4127
573.0750	1.41627
573.0500	1.41565
573.0250	1.41618
573.0000	1.41495
572.9750	1.41278
572.9500	1.41393
572.9250	1.41208
572.9000	1.41411
572.8750	1.41641
572.8500	1.41529
572.8250	1.41781
572.8000	1.41563
572.7750	1.41466
572.7500	1.41387
572.7250	1.40845
572.7000	1.40847
572.6750	1.40685
572.6500	1.40756
572.6250	1.40339
572.6000	1.40198
572.5750	1.40228
572.5500	1.40089
572.5250	1.40054
572.5000	1.40095
572.4750	1.40158
572.4500	1.40307
572.4250	1.40262
572.4000	1.40176
572.3750	1.40381
572.3500	1.40198
572.3250	1.40259
572.3000	1.4002
572.2750	1.40295
572.2500	1.40247
572.2250	1.40403
572.2000	1.40406
572.1750	1.40133
572.1500	1.40157
572.1250	1.4013
572.1000	1.4009
572.0750	1.39987
572.0500	1.40079
572.0250	1.39926
572.0000	1.3999
571.9750	1.39908
571.9500	1.39881
571.9250	1.39736
571.9000	1.39426
571.8750	1.39437
571.8500	1.39439
571.8250	1.39429
571.8000	1.3945
571.7750	1.39494
571.7500	1.39909
571.7250	1.39854
571.7000	1.39785
571.6750	1.39978
571.6500	1.40294
571.6250	1.40661
571.6000	1.40739
571.5750	1.40958
571.5500	1.41334
571.5250	1.41437
571.5000	1.4167
571.4750	1.41596
571.4500	1.41652
571.4250	1.41691
571.4000	1.41628
571.3750	1.41698
571.3500	1.41226
571.3250	1.41169
571.3000	1.41136
571.2750	1.41171
571.2500	1.4088
571.2250	1.40822
571.2000	1.40829
571.1750	1.41057
571.1500	1.40889
571.1250	1.41029
571.1000	1.40942
571.0750	1.40971
571.0500	1.40924
571.0250	1.40987
571.0000	1.41257
570.9750	1.41609
570.9500	1.42047
570.9250	1.42187
570.9000	1.42221
570.8750	1.42339
570.8500	1.42096
570.8250	1.42124
570.8000	1.41766
570.7750	1.41549
570.7500	1.41191
570.7250	1.41774
570.7000	1.41836
570.6750	1.41842
570.6500	1.41771
570.6250	1.42007
570.6000	1.4233
570.5750	1.4229
570.5500	1.42237
570.5250	1.42403
570.5000	1.42387
570.4750	1.4208
570.4500	1.41683
570.4250	1.41301
570.4000	1.41487
570.3750	1.41056
570.3500	1.40783
570.3250	1.40599
570.3000	1.41238
570.2750	1.41316
570.2500	1.41183
570.2250	1.41231
570.2000	1.41354
570.1750	1.41751
570.1500	1.41497
570.1250	1.41324
570.1000	1.41287
570.0750	1.41295
570.0500	1.41152
570.0250	1.41231
570.0000	1.4087
569.9750	1.40821
569.9500	1.40952
569.9250	1.40878
569.9000	1.41076
569.8750	1.41164
569.8500	1.41031
569.8250	1.4124
569.8000	1.41435
569.7750	1.41492
569.7500	1.41386
569.7250	1.41516
569.7000	1.41358
569.6750	1.41364
569.6500	1.41241
569.6250	1.41224
569.6000	1.41329
569.5750	1.41379
569.5500	1.41144
569.5250	1.41342
569.5000	1.41252
569.4750	1.40925
569.4500	1.40768
569.4250	1.40518
569.4000	1.40701
569.3750	1.40336
569.3500	1.40326
569.3250	1.40462
569.3000	1.40392
569.2750	1.40298
569.2500	1.40162
569.2250	1.40253
569.2000	1.4003
569.1750	1.40073
569.1500	1.40106
569.1250	1.40176
569.1000	1.4035
569.0750	1.39971
569.0500	1.4019
569.0250	1.40219
569.0000	1.39786
568.9750	1.39894
568.9500	1.39781
568.9250	1.3984
568.9000	1.4004
568.8750	1.39697
568.8500	1.40056
568.8250	1.39812
568.8000	1.39729
568.7750	1.39454
568.7500	1.39229
568.7250	1.39756
568.7000	1.4001
568.6750	1.40442
568.6500	1.40507
568.6250	1.40771
568.6000	1.40996
568.5750	1.4099
568.5500	1.40735
568.5250	1.40799
568.5000	1.40686
568.4750	1.40896
568.4500	1.40696
568.4250	1.40543
568.4000	1.40659
568.3750	1.40631
568.3500	1.40633
568.3250	1.40715
568.3000	1.40556
568.2750	1.40739
568.2500	1.4096
568.2250	1.40898
568.2000	1.40931
568.1750	1.40998
568.1500	1.40939
568.1250	1.41028
568.1000	1.40648
568.0750	1.40425
568.0500	1.40364
568.0250	1.40233
568.0000	1.40066
567.9750	1.40084
567.9500	1.4014
567.9250	1.4023
567.9000	1.40423
567.8750	1.40636
567.8500	1.40815
567.8250	1.41119
567.8000	1.41089
567.7750	1.41413
567.7500	1.41726
567.7250	1.41672
567.7000	1.41971
567.6750	1.4218
567.6500	1.42104
567.6250	1.42469
567.6000	1.42438
567.5750	1.42194
567.5500	1.42081
567.5250	1.41917
567.5000	1.41643
567.4750	1.41306
567.4500	1.41002
567.4250	1.40718
567.4000	1.40712
567.3750	1.40502
567.3500	1.40257
567.3250	1.40447
567.3000	1.40291
567.2750	1.40452
567.2500	1.40738
567.2250	1.40592
567.2000	1.40809
567.1750	1.40882
567.1500	1.40858
567.1250	1.40984
567.1000	1.40914
567.0750	1.40814
567.0500	1.40561
567.0250	1.40544
567.0000	1.40621
566.9750	1.40413
566.9500	1.40207
566.9250	1.39991
566.9000	1.3994
566.8750	1.39837
566.8500	1.3973
566.8250	1.39856
566.8000	1.39809
566.7750	1.39697
566.7500	1.39522
566.7250	1.3972
566.7000	1.39665
566.6750	1.39825
566.6500	1.39838
566.6250	1.40127
566.6000	1.40049
566.5750	1.40178
566.5500	1.40142
566.5250	1.39981
566.5000	1.39967
566.4750	1.39861
566.4500	1.39584
566.4250	1.39401
566.4000	1.39316
566.3750	1.39021
566.3500	1.38891
566.3250	1.38548
566.3000	1.38588
566.2750	1.38611
566.2500	1.38591
566.2250	1.38542
566.2000	1.38225
566.1750	1.38177
566.1500	1.38501
566.1250	1.38723
566.1000	1.38503
566.0750	1.38619
566.0500	1.38677
566.0250	1.38945
566.0000	1.38628
565.9750	1.38294
565.9500	1.38466
565.9250	1.38452
565.9000	1.38467
565.8750	1.38433
565.8500	1.38245
565.8250	1.38307
565.8000	1.38012
565.7750	1.37943
565.7500	1.38074
565.7250	1.38015
565.7000	1.38179
565.6750	1.38502
565.6500	1.38782
565.6250	1.38823
565.6000	1.3894
565.5750	1.38975
565.5500	1.39192
565.5250	1.39322
565.5000	1.39413
565.4750	1.39647
565.4500	1.39635
565.4250	1.39931
565.4000	1.39894
565.3750	1.39733
565.3500	1.39735
565.3250	1.39603
565.3000	1.40066
565.2750	1.39878
565.2500	1.39805
565.2250	1.39637
565.2000	1.39807
565.1750	1.39638
565.1500	1.39321
565.1250	1.39086
565.1000	1.391
565.0750	1.38943
565.0500	1.38806
565.0250	1.38356
565.0000	1.38405
564.9750	1.38264
564.9500	1.38601
564.9250	1.38705
564.9000	1.39093
564.8750	1.39347
564.8500	1.39794
564.8250	1.40006
564.8000	1.39936
564.7750	1.4012
564.7500	1.40137
564.7250	1.40127
564.7000	1.40092
564.6750	1.39991
564.6500	1.39994
564.6250	1.39983
564.6000	1.39941
564.5750	1.4017
564.5500	1.40028
564.5250	1.40079
564.5000	1.40177
564.4750	1.40159
564.4500	1.4032
564.4250	1.40061
564.4000	1.40122
564.3750	1.40076
564.3500	1.39822
564.3250	1.39524
564.3000	1.39347
564.2750	1.39285
564.2500	1.39247
564.2250	1.39552
564.2000	1.39463
564.1750	1.39367
564.1500	1.39527
564.1250	1.39526
564.1000	1.39594
564.0750	1.39612
564.0500	1.39493
564.0250	1.394
564.0000	1.39242
563.9750	1.39002
563.9500	1.39077
563.9250	1.39067
563.9000	1.39017
563.8750	1.38806
563.8500	1.39075
563.8250	1.39024
563.8000	1.39033
563.7750	1.39069
563.7500	1.38895
563.7250	1.38611
563.7000	1.38867
563.6750	1.3899
563.6500	1.38786
563.6250	1.38655
563.6000	1.38496
563.5750	1.38623
563.5500	1.38333
563.5250	1.38134
563.5000	1.37931
563.4750	1.3771
563.4500	1.3764
563.4250	1.37708
563.4000	1.3778
563.3750	1.3761
563.3500	1.37381
563.3250	1.37443
563.3000	1.37498
563.2750	1.3748
563.2500	1.3739
563.2250	1.372
563.2000	1.36936
563.1750	1.36934
563.1500	1.37198
563.1250	1.37098
563.1000	1.36979
563.0750	1.37257
563.0500	1.37621
563.0250	1.37791
563.0000	1.37465
562.9750	1.37537
562.9500	1.37681
562.9250	1.37518
562.9000	1.37442
562.8750	1.37514
562.8500	1.38074
562.8250	1.38325
562.8000	1.38569
562.7750	1.38814
562.7500	1.39292
562.7250	1.39333
562.7000	1.39503
562.6750	1.39387
562.6500	1.39418
562.6250	1.3943
562.6000	1.39471
562.5750	1.39337
562.5500	1.39307
562.5250	1.39317
562.5000	1.39512
562.4750	1.39126
562.4500	1.3881
562.4250	1.38847
562.4000	1.38719
562.3750	1.3857
562.3500	1.38478
562.3250	1.38422
562.3000	1.38542
562.2750	1.38319
562.2500	1.38218
562.2250	1.38347
562.2000	1.38296
562.1750	1.38321
562.1500	1.38176
562.1250	1.38003
562.1000	1.38132
562.0750	1.38094
562.0500	1.38047
562.0250	1.37942
562.0000	1.37693
561.9750	1.37891
561.9500	1.38117
561.9250	1.38
561.9000	1.38031
561.8750	1.38094
561.8500	1.3839
561.8250	1.38667
561.8000	1.38519
561.7750	1.38695
561.7500	1.3895
561.7250	1.39078
561.7000	1.3939
561.6750	1.39659
561.6500	1.39721
561.6250	1.40037
561.6000	1.39951
561.5750	1.40034
561.5500	1.39769
561.5250	1.39834
561.5000	1.3957
561.4750	1.39715
561.4500	1.39455
561.4250	1.39478
561.4000	1.39357
561.3750	1.39631
561.3500	1.39466
561.3250	1.39351
561.3000	1.39336
561.2750	1.39167
561.2500	1.39101
561.2250	1.39131
561.2000	1.38861
561.1750	1.39161
561.1500	1.39257
561.1250	1.39292
561.1000	1.39252
561.0750	1.39418
561.0500	1.39296
561.0250	1.38902
561.0000	1.38823
560.9750	1.3876
560.9500	1.38811
560.9250	1.38651
560.9000	1.38818
560.8750	1.38989
560.8500	1.38979
560.8250	1.38714
560.8000	1.38767
560.7750	1.38442
560.7500	1.38307
560.7250	1.37865
560.7000	1.38047
560.6750	1.38249
560.6500	1.38158
560.6250	1.3789
560.6000	1.38011
560.5750	1.38069
560.5500	1.38306
560.5250	1.3797
560.5000	1.38218
560.4750	1.38625
560.4500	1.38629
560.4250	1.38652
560.4000	1.38539
560.3750	1.38675
560.3500	1.38438
560.3250	1.38107
560.3000	1.37967
560.2750	1.37695
560.2500	1.37662
560.2250	1.37561
560.2000	1.37754
560.1750	1.37826
560.1500	1.38167
560.1250	1.38468
560.1000	1.38533
560.0750	1.38558
560.0500	1.38992
560.0250	1.39203
560.0000	1.39459
559.9750	1.3949
559.9500	1.39568
559.9250	1.396
559.9000	1.39647
559.8750	1.39028
559.8500	1.38797
559.8250	1.38646
559.8000	1.38724
559.7750	1.38949
559.7500	1.3881
559.7250	1.38801
559.7000	1.38698
559.6750	1.38958
559.6500	1.38865
559.6250	1.38909
559.6000	1.38451
559.5750	1.3873
559.5500	1.38535
559.5250	1.38615
559.5000	1.38357
559.4750	1.38465
559.4500	1.38392
559.4250	1.38503
559.4000	1.38552
559.3750	1.38407
559.3500	1.3822
559.3250	1.38227
559.3000	1.37832
559.2750	1.37504
559.2500	1.37364
559.2250	1.3737
559.2000	1.37522
559.1750	1.37467
559.1500	1.37496
559.1250	1.37599
559.1000	1.37523
559.0750	1.37297
559.0500	1.37619
559.0250	1.37852
559.0000	1.38436
558.9750	1.38804
558.9500	1.39213
558.9250	1.39578
558.9000	1.39661
558.8750	1.39549
558.8500	1.39528
558.8250	1.39767
558.8000	1.39616
558.7750	1.39392
558.7500	1.39457
558.7250	1.39577
558.7000	1.39401
558.6750	1.39099
558.6500	1.39032
558.6250	1.39099
558.6000	1.39047
558.5750	1.39011
558.5500	1.38627
558.5250	1.38593
558.5000	1.38609
558.4750	1.38522
558.4500	1.38565
558.4250	1.38567
558.4000	1.38292
558.3750	1.38518
558.3500	1.38506
558.3250	1.38406
558.3000	1.38483
558.2750	1.38331
558.2500	1.38343
558.2250	1.38272
558.2000	1.37932
558.1750	1.37991
558.1500	1.3786
558.1250	1.37752
558.1000	1.37792
558.0750	1.37844
558.0500	1.37654
558.0250	1.37941
558.0000	1.3823
557.9750	1.37907
557.9500	1.38124
557.9250	1.38152
557.9000	1.37855
557.8750	1.37812
557.8500	1.37864
557.8250	1.37661
557.8000	1.37393
557.7750	1.37406
557.7500	1.37283
557.7250	1.37482
557.7000	1.37381
557.6750	1.37343
557.6500	1.37268
557.6250	1.37018
557.6000	1.36957
557.5750	1.36571
557.5500	1.36794
557.5250	1.36601
557.5000	1.36848
557.4750	1.37139
557.4500	1.37593
557.4250	1.37894
557.4000	1.38338
557.3750	1.38357
557.3500	1.38369
557.3250	1.38145
557.3000	1.38094
557.2750	1.38158
557.2500	1.38279
557.2250	1.38035
557.2000	1.37781
557.1750	1.37913
557.1500	1.3837
557.1250	1.3835
557.1000	1.3802
557.0750	1.38181
557.0500	1.38086
557.0250	1.38037
557.0000	1.3761
556.9750	1.37087
556.9500	1.36845
556.9250	1.36617
556.9000	1.36801
556.8750	1.36922
556.8500	1.36757
556.8250	1.36966
556.8000	1.3697
556.7750	1.37195
556.7500	1.36979
556.7250	1.36895
556.7000	1.36921
556.6750	1.36989
556.6500	1.36911
556.6250	1.36734
556.6000	1.36761
556.5750	1.36636
556.5500	1.36484
556.5250	1.36482
556.5000	1.36119
556.4750	1.36104
556.4500	1.35857
556.4250	1.35726
556.4000	1.35635
556.3750	1.35835
556.3500	1.36076
556.3250	1.36232
556.3000	1.36315
556.2750	1.36249
556.2500	1.36491
556.2250	1.36683
556.2000	1.36613
556.1750	1.36864
556.1500	1.36987
556.1250	1.37221
556.1000	1.376
556.0750	1.37771
556.0500	1.3799
556.0250	1.38297
556.0000	1.38112
555.9750	1.38258
555.9500	1.38401
555.9250	1.38565
555.9000	1.38224
555.8750	1.38177
555.8500	1.38181
555.8250	1.38245
555.8000	1.37993
555.7750	1.38015
555.7500	1.38052
555.7250	1.37944
555.7000	1.37959
555.6750	1.37956
555.6500	1.37922
555.6250	1.3774
555.6000	1.37577
555.5750	1.37196
555.5500	1.37379
555.5250	1.37202
555.5000	1.37058
555.4750	1.37113
555.4500	1.37091
555.4250	1.37113
555.4000	1.36707
555.3750	1.3668
555.3500	1.36984
555.3250	1.37032
555.3000	1.37072
555.2750	1.3728
555.2500	1.37324
555.2250	1.37291
555.2000	1.369
555.1750	1.36932
555.1500	1.3706
555.1250	1.36875
555.1000	1.36802
555.0750	1.36668
555.0500	1.3668
555.0250	1.3658
555.0000	1.36306
554.9750	1.36201
554.9500	1.36115
554.9250	1.36201
554.9000	1.36209
554.8750	1.36281
554.8500	1.3649
554.8250	1.37006
554.8000	1.37432
554.7750	1.37686
554.7500	1.37508
554.7250	1.37431
554.7000	1.37252
554.6750	1.37145
554.6500	1.36961
554.6250	1.36654
554.6000	1.36574
554.5750	1.36757
554.5500	1.36959
554.5250	1.36932
554.5000	1.36846
554.4750	1.37133
554.4500	1.37178
554.4250	1.37234
554.4000	1.36959
554.3750	1.37269
554.3500	1.36971
554.3250	1.36723
554.3000	1.36685
554.2750	1.36282
554.2500	1.36512
554.2250	1.36366
554.2000	1.36226
554.1750	1.36193
554.1500	1.35736
554.1250	1.35869
554.1000	1.36016
554.0750	1.3577
554.0500	1.35901
554.0250	1.35828
554.0000	1.35779
553.9750	1.35684
553.9500	1.35656
553.9250	1.35573
553.9000	1.35616
553.8750	1.35892
553.8500	1.35903
553.8250	1.35784
553.8000	1.35365
553.7750	1.35113
553.7500	1.35244
553.7250	1.3494
553.7000	1.3481
553.6750	1.34752
553.6500	1.34959
553.6250	1.35295
553.6000	1.35288
553.5750	1.35586
553.5500	1.35752
553.5250	1.35995
553.5000	1.36337
553.4750	1.36895
553.4500	1.37112
553.4250	1.37376
553.4000	1.37584
553.3750	1.37561
553.3500	1.38026
553.3250	1.37926
553.3000	1.37839
553.2750	1.37868
553.2500	1.37709
553.2250	1.37872
553.2000	1.37798
553.1750	1.37528
553.1500	1.37643
553.1250	1.37663
553.1000	1.37555
553.0750	1.37474
553.0500	1.37435
553.0250	1.37456
553.0000	1.37344
552.9750	1.37386
552.9500	1.37511
552.9250	1.37444
552.9000	1.37402
552.8750	1.37805
552.8500	1.37662
552.8250	1.37408
552.8000	1.37188
552.7750	1.37073
552.7500	1.37368
552.7250	1.36943
552.7000	1.36733
552.6750	1.36847
552.6500	1.36842
552.6250	1.36774
552.6000	1.36321
552.5750	1.36445
552.5500	1.36352
552.5250	1.36483
552.5000	1.36206
552.4750	1.36187
552.4500	1.3617
552.4250	1.36178
552.4000	1.36204
552.3750	1.36454
552.3500	1.36899
552.3250	1.36767
552.3000	1.36872
552.2750	1.37045
552.2500	1.37115
552.2250	1.3691
552.2000	1.36641
552.1750	1.36523
552.1500	1.36772
552.1250	1.37134
552.1000	1.37198
552.0750	1.37085
552.0500	1.372
552.0250	1.37245
552.0000	1.37201
551.9750	1.36951
551.9500	1.36804
551.9250	1.36639
551.9000	1.36804
551.8750	1.36817
551.8500	1.37037
551.8250	1.37007
551.8000	1.3643
551.7750	1.36685
551.7500	1.36723
551.7250	1.36653
551.7000	1.36349
551.6750	1.36242
551.6500	1.36206
551.6250	1.36305
551.6000	1.36045
551.5750	1.36149
551.5500	1.36336
551.5250	1.36343
551.5000	1.36449
551.4750	1.3658
551.4500	1.36397
551.4250	1.36373
551.4000	1.35892
551.3750	1.35565
551.3500	1.35561
551.3250	1.35267
551.3000	1.35418
551.2750	1.35287
551.2500	1.351
551.2250	1.35172
551.2000	1.3511
551.1750	1.34997
551.1500	1.3489
551.1250	1.34514
551.1000	1.34401
551.0750	1.34346
551.0500	1.34367
551.0250	1.3422
551.0000	1.34405
550.9750	1.34457
550.9500	1.3491
550.9250	1.35087
550.9000	1.35497
550.8750	1.35836
550.8500	1.3631
550.8250	1.3645
550.8000	1.3687
550.7750	1.37149
550.7500	1.37501
550.7250	1.37632
550.7000	1.37467
550.6750	1.37494
550.6500	1.37609
550.6250	1.3798
550.6000	1.38058
550.5750	1.37769
550.5500	1.37804
550.5250	1.37893
550.5000	1.38016
550.4750	1.37747
550.4500	1.3754
550.4250	1.37407
550.4000	1.37617
550.3750	1.37139
550.3500	1.36801
550.3250	1.36711
550.3000	1.36701
550.2750	1.36588
550.2500	1.36733
550.2250	1.36658
550.2000	1.36526
550.1750	1.36809
550.1500	1.36526
550.1250	1.36426
550.1000	1.36157
550.0750	1.36133
550.0500	1.36443
550.0250	1.36492
550.0000	1.3677
549.9750	1.36789
549.9500	1.37168
549.9250	1.37284
549.9000	1.37213
549.8750	1.37281
549.8500	1.37158
549.8250	1.36911
549.8000	1.37148
549.7750	1.37088
549.7500	1.37167
549.7250	1.37206
549.7000	1.3712
549.6750	1.37062
549.6500	1.36953
549.6250	1.36914
549.6000	1.36876
549.5750	1.36863
549.5500	1.36879
549.5250	1.37088
549.5000	1.36996
549.4750	1.36929
549.4500	1.36682
549.4250	1.36715
549.4000	1.368
549.3750	1.36435
549.3500	1.36261
549.3250	1.3634
549.3000	1.36518
549.2750	1.363
549.2500	1.36244
549.2250	1.36178
549.2000	1.36068
549.1750	1.3603
549.1500	1.35636
549.1250	1.35405
549.1000	1.35382
549.0750	1.35201
549.0500	1.35325
549.0250	1.35397
549.0000	1.35534
548.9750	1.35584
548.9500	1.35466
548.9250	1.3532
548.9000	1.35155
548.8750	1.34829
548.8500	1.34523
548.8250	1.34264
548.8000	1.34115
548.7750	1.33909
548.7500	1.33897
548.7250	1.33759
548.7000	1.3381
548.6750	1.33699
548.6500	1.33791
548.6250	1.33612
548.6000	1.33314
548.5750	1.33107
548.5500	1.33428
548.5250	1.33262
548.5000	1.33457
548.4750	1.33427
548.4500	1.33678
548.4250	1.33578
548.4000	1.33306
548.3750	1.33466
548.3500	1.33794
548.3250	1.34075
548.3000	1.34674
548.2750	1.35123
548.2500	1.35311
548.2250	1.35784
548.2000	1.35847
548.1750	1.36055
548.1500	1.36112
548.1250	1.36321
548.1000	1.36417
548.0750	1.36431
548.0500	1.36649
548.0250	1.36706
548.0000	1.3665
547.9750	1.36472
547.9500	1.36365
547.9250	1.36813
547.9000	1.36736
547.8750	1.36457
547.8500	1.36471
547.8250	1.36254
547.8000	1.35951
547.7750	1.36041
547.7500	1.35609
547.7250	1.35745
547.7000	1.3579
547.6750	1.35683
547.6500	1.35637
547.6250	1.3546
547.6000	1.35511
547.5750	1.35274
547.5500	1.35211
547.5250	1.35456
547.5000	1.35566
547.4750	1.36013
547.4500	1.36149
547.4250	1.36025
547.4000	1.36259
547.3750	1.36045
547.3500	1.36064
547.3250	1.35809
547.3000	1.35565
547.2750	1.35619
547.2500	1.35672
547.2250	1.35396
547.2000	1.353
547.1750	1.35081
547.1500	1.35137
547.1250	1.34957
547.1000	1.34819
547.0750	1.34996
547.0500	1.35253
547.0250	1.3512
547.0000	1.3534
546.9750	1.35143
546.9500	1.3526
546.9250	1.34945
546.9000	1.34918
546.8750	1.34989
546.8500	1.34923
546.8250	1.34854
546.8000	1.3474
546.7750	1.34599
546.7500	1.34521
546.7250	1.34472
546.7000	1.34422
546.6750	1.34455
546.6500	1.34362
546.6250	1.34531
546.6000	1.34439
546.5750	1.34679
546.5500	1.34432
546.5250	1.34196
546.5000	1.34106
546.4750	1.33704
546.4500	1.33696
546.4250	1.33244
546.4000	1.33341
546.3750	1.33399
546.3500	1.3306
546.3250	1.33134
546.3000	1.33209
546.2750	1.33341
546.2500	1.33182
546.2250	1.33121
546.2000	1.32966
546.1750	1.32586
546.1500	1.32489
546.1250	1.32529
546.1000	1.32553
546.0750	1.32411
546.0500	1.32457
546.0250	1.32589
546.0000	1.32671
545.9750	1.32556
545.9500	1.32613
545.9250	1.32473
545.9000	1.32551
545.8750	1.32853
545.8500	1.33334
545.8250	1.34078
545.8000	1.3466
545.7750	1.3507
545.7500	1.35391
545.7250	1.35804
545.7000	1.35873
545.6750	1.35687
545.6500	1.35736
545.6250	1.3591
545.6000	1.36293
545.5750	1.36123
545.5500	1.36112
545.5250	1.35963
545.5000	1.35934
545.4750	1.35812
545.4500	1.35476
545.4250	1.35342
545.4000	1.35185
545.3750	1.35384
545.3500	1.35021
545.3250	1.35256
545.3000	1.35201
545.2750	1.35067
545.2500	1.35001
545.2250	1.34827
545.2000	1.34853
545.1750	1.35203
545.1500	1.35317
545.1250	1.35422
545.1000	1.35743
545.0750	1.35877
545.0500	1.35972
545.0250	1.35926
545.0000	1.36047
544.9750	1.36308
544.9500	1.36047
544.9250	1.35934
544.9000	1.35806
544.8750	1.35989
544.8500	1.3573
544.8250	1.35337
544.8000	1.35003
544.7750	1.35398
544.7500	1.35155
544.7250	1.34863
544.7000	1.34492
544.6750	1.34709
544.6500	1.34994
544.6250	1.34754
544.6000	1.34445
544.5750	1.3431
544.5500	1.34477
544.5250	1.34516
544.5000	1.34365
544.4750	1.34165
544.4500	1.34311
544.4250	1.34589
544.4000	1.34421
544.3750	1.34556
544.3500	1.34323
544.3250	1.34524
544.3000	1.34607
544.2750	1.34495
544.2500	1.34242
544.2250	1.34031
544.2000	1.33751
544.1750	1.33587
544.1500	1.33288
544.1250	1.33292
544.1000	1.33294
544.0750	1.33372
544.0500	1.33608
544.0250	1.3344
544.0000	1.33346
543.9750	1.33275
543.9500	1.33294
543.9250	1.3306
543.9000	1.33241
543.8750	1.33198
543.8500	1.33254
543.8250	1.33009
543.8000	1.32627
543.7750	1.3258
543.7500	1.32477
543.7250	1.32291
543.7000	1.32289
543.6750	1.32189
543.6500	1.32114
543.6250	1.32213
543.6000	1.32449
543.5750	1.32385
543.5500	1.32503
543.5250	1.3297
543.5000	1.33452
543.4750	1.33991
543.4500	1.34415
543.4250	1.346
543.4000	1.35013
543.3750	1.35239
543.3500	1.35287
543.3250	1.35331
543.3000	1.35166
543.2750	1.35663
543.2500	1.3567
543.2250	1.35435
543.2000	1.3571
543.1750	1.35752
543.1500	1.35768
543.1250	1.35835
543.1000	1.35794
543.0750	1.35932
543.0500	1.36042
543.0250	1.35863
543.0000	1.35817
542.9750	1.35671
542.9500	1.35471
542.9250	1.35686
542.9000	1.35748
542.8750	1.35551
542.8500	1.35492
542.8250	1.35409
542.8000	1.35504
542.7750	1.35359
542.7500	1.35365
542.7250	1.35096
542.7000	1.35386
542.6750	1.35403
542.6500	1.3536
542.6250	1.35226
542.6000	1.35441
542.5750	1.35292
542.5500	1.35391
542.5250	1.35348
542.5000	1.35358
542.4750	1.35404
542.4500	1.35113
542.4250	1.34941
542.4000	1.34606
542.3750	1.3446
542.3500	1.34533
542.3250	1.34471
542.3000	1.3416
542.2750	1.34331
542.2500	1.34449
542.2250	1.34534
542.2000	1.34329
542.1750	1.34175
542.1500	1.3408
542.1250	1.34088
542.1000	1.3398
542.0750	1.33845
542.0500	1.33831
542.0250	1.33827
542.0000	1.33617
541.9750	1.33367
541.9500	1.33227
541.9250	1.33123
541.9000	1.32701
541.8750	1.32904
541.8500	1.32714
541.8250	1.327
541.8000	1.32718
541.7750	1.32563
541.7500	1.32478
541.7250	1.32564
541.7000	1.32434
541.6750	1.328
541.6500	1.32449
541.6250	1.32338
541.6000	1.32586
541.5750	1.32537
541.5500	1.32372
541.5250	1.32309
541.5000	1.32369
541.4750	1.32436
541.4500	1.32405
541.4250	1.32389
541.4000	1.32052
541.3750	1.31755
541.3500	1.31626
541.3250	1.31758
541.3000	1.3178
541.2750	1.31677
541.2500	1.32075
541.2250	1.32747
541.2000	1.33171
541.1750	1.33621
541.1500	1.34159
541.1250	1.34181
541.1000	1.35138
541.0750	1.35234
541.0500	1.35444
541.0250	1.35806
541.0000	1.35881
540.9750	1.35916
540.9500	1.35999
540.9250	1.35834
540.9000	1.35712
540.8750	1.35709
540.8500	1.35675
540.8250	1.3572
540.8000	1.35523
540.7750	1.35512
540.7500	1.35576
540.7250	1.35278
540.7000	1.35307
540.6750	1.35187
540.6500	1.35145
540.6250	1.35445
540.6000	1.35695
540.5750	1.35814
540.5500	1.35658
540.5250	1.35547
540.5000	1.3547
540.4750	1.35344
540.4500	1.3484
540.4250	1.34517
540.4000	1.34448
540.3750	1.34266
540.3500	1.34208
540.3250	1.34204
540.3000	1.33791
540.2750	1.34028
540.2500	1.34071
540.2250	1.34259
540.2000	1.34076
540.1750	1.33904
540.1500	1.3399
540.1250	1.33676
540.1000	1.33462
540.0750	1.33211
540.0500	1.33316
540.0250	1.33449
540.0000	1.33418
539.9750	1.33395
539.9500	1.33412
539.9250	1.3321
539.9000	1.33235
539.8750	1.32934
539.8500	1.32938
539.8250	1.33176
539.8000	1.33085
539.7750	1.33231
539.7500	1.33178
539.7250	1.32846
539.7000	1.32734
539.6750	1.32536
539.6500	1.32573
539.6250	1.32572
539.6000	1.32165
539.5750	1.32109
539.5500	1.32369
539.5250	1.32432
539.5000	1.3233
539.4750	1.31957
539.4500	1.31888
539.4250	1.31735
539.4000	1.31418
539.3750	1.31148
539.3500	1.31588
539.3250	1.31703
539.3000	1.31857
539.2750	1.31883
539.2500	1.31652
539.2250	1.31624
539.2000	1.30961
539.1750	1.30566
539.1500	1.30312
539.1250	1.30033
539.1000	1.29913
539.0750	1.30243
539.0500	1.30583
539.0250	1.31156
539.0000	1.3194
538.9750	1.32738
538.9500	1.33299
538.9250	1.33826
538.9000	1.34185
538.8750	1.34489
538.8500	1.34436
538.8250	1.34215
538.8000	1.34162
538.7750	1.34058
538.7500	1.34446
538.7250	1.34172
538.7000	1.34008
538.6750	1.34239
538.6500	1.34481
538.6250	1.34613
538.6000	1.34641
538.5750	1.34524
538.5500	1.34418
538.5250	1.34473
538.5000	1.34169
538.4750	1.33985
538.4500	1.33596
538.4250	1.33737
538.4000	1.34005
538.3750	1.3382
538.3500	1.33452
538.3250	1.33302
538.3000	1.33384
538.2750	1.33287
538.2500	1.33112
538.2250	1.33107
538.2000	1.33148
538.1750	1.33392
538.1500	1.33525
538.1250	1.33535
538.1000	1.33597
538.0750	1.33679
538.0500	1.33602
538.0250	1.33614
538.0000	1.33484
537.9750	1.32981
537.9500	1.32825
537.9250	1.3264
537.9000	1.32364
537.8750	1.32451
537.8500	1.32566
537.8250	1.32472
537.8000	1.32654
537.7750	1.32565
537.7500	1.32715
537.7250	1.32651
537.7000	1.32801
537.6750	1.32526
537.6500	1.32346
537.6250	1.32445
537.6000	1.32312
537.5750	1.32151
537.5500	1.3205
537.5250	1.32548
537.5000	1.32464
537.4750	1.32652
537.4500	1.32475
537.4250	1.32438
537.4000	1.32394
537.3750	1.3186
537.3500	1.31497
537.3250	1.31365
537.3000	1.31285
537.2750	1.31124
537.2500	1.31223
537.2250	1.31141
537.2000	1.31282
537.1750	1.31237
537.1500	1.30826
537.1250	1.30647
537.1000	1.30847
537.0750	1.30738
537.0500	1.30537
537.0250	1.30643
537.0000	1.30521
536.9750	1.30787
536.9500	1.30838
536.9250	1.3121
536.9000	1.3197
536.8750	1.3263
536.8500	1.33287
536.8250	1.33752
536.8000	1.34403
536.7750	1.34694
536.7500	1.34727
536.7250	1.34281
536.7000	1.33977
536.6750	1.34272
536.6500	1.34223
536.6250	1.34262
536.6000	1.34393
536.5750	1.34733
536.5500	1.34639
536.5250	1.34816
536.5000	1.34285
536.4750	1.3421
536.4500	1.34074
536.4250	1.33865
536.4000	1.34175
536.3750	1.34218
536.3500	1.34308
536.3250	1.34195
536.3000	1.34351
536.2750	1.34322
536.2500	1.33891
536.2250	1.34046
536.2000	1.33814
536.1750	1.33683
536.1500	1.33476
536.1250	1.33154
536.1000	1.33159
536.0750	1.33181
536.0500	1.32958
536.0250	1.33238
536.0000	1.33356
535.9750	1.33515
535.9500	1.3318
535.9250	1.32833
535.9000	1.33026
535.8750	1.32806
535.8500	1.32378
535.8250	1.32339
535.8000	1.32407
535.7750	1.32827
535.7500	1.32698
535.7250	1.32673
535.7000	1.32594
535.6750	1.3246
535.6500	1.32464
535.6250	1.32353
535.6000	1.32217
535.5750	1.32168
535.5500	1.31993
535.5250	1.31895
535.5000	1.31645
535.4750	1.31715
535.4500	1.31637
535.4250	1.31387
535.4000	1.31556
535.3750	1.31606
535.3500	1.31697
535.3250	1.31512
535.3000	1.31594
535.2750	1.31892
535.2500	1.3182
535.2250	1.31733
535.2000	1.31424
535.1750	1.31367
535.1500	1.31403
535.1250	1.312
535.1000	1.30945
535.0750	1.30857
535.0500	1.30996
535.0250	1.31119
535.0000	1.30827
534.9750	1.30954
534.9500	1.307
534.9250	1.30757
534.9000	1.30965
534.8750	1.31359
534.8500	1.31824
534.8250	1.32199
534.8000	1.32858
534.7750	1.33651
534.7500	1.34203
534.7250	1.34309
534.7000	1.34418
534.6750	1.34676
534.6500	1.34816
534.6250	1.34624
534.6000	1.34699
534.5750	1.34944
534.5500	1.3493
534.5250	1.34852
534.5000	1.34501
534.4750	1.34446
534.4500	1.34265
534.4250	1.34031
534.4000	1.33797
534.3750	1.33881
534.3500	1.3383
534.3250	1.33956
534.3000	1.33893
534.2750	1.34175
534.2500	1.34259
534.2250	1.34279
534.2000	1.34216
534.1750	1.34144
534.1500	1.34109
534.1250	1.33872
534.1000	1.33844
534.0750	1.3369
534.0500	1.33255
534.0250	1.33309
534.0000	1.33281
533.9750	1.33493
533.9500	1.33232
533.9250	1.32942
533.9000	1.32792
533.8750	1.3285
533.8500	1.32669
533.8250	1.32507
533.8000	1.3208
533.7750	1.32026
533.7500	1.31939
533.7250	1.32009
533.7000	1.32256
533.6750	1.3247
533.6500	1.32555
533.6250	1.32778
533.6000	1.3259
533.5750	1.32572
533.5500	1.32386
533.5250	1.3223
533.5000	1.31961
533.4750	1.31737
533.4500	1.31609
533.4250	1.31698
533.4000	1.31857
533.3750	1.31747
533.3500	1.31598
533.3250	1.31418
533.3000	1.31464
533.2750	1.31034
533.2500	1.31226
533.2250	1.3097
533.2000	1.31052
533.1750	1.30885
533.1500	1.30685
533.1250	1.30755
533.1000	1.30729
533.0750	1.30692
533.0500	1.30403
533.0250	1.30447
533.0000	1.30419
532.9750	1.30458
532.9500	1.30702
532.9250	1.30932
532.9000	1.31179
532.8750	1.31958
532.8500	1.32394
532.8250	1.32781
532.8000	1.33275
532.7750	1.33544
532.7500	1.33871
532.7250	1.33825
532.7000	1.33948
532.6750	1.34079
532.6500	1.33781
532.6250	1.33468
532.6000	1.3348
532.5750	1.33538
532.5500	1.33442
532.5250	1.33451
532.5000	1.33554
532.4750	1.33898
532.4500	1.33539
532.4250	1.33241
532.4000	1.33277
532.3750	1.32869
532.3500	1.32795
532.3250	1.32593
532.3000	1.32542
532.2750	1.32877
532.2500	1.32722
532.2250	1.32953
532.2000	1.3285
532.1750	1.3282
532.1500	1.32653
532.1250	1.32704
532.1000	1.32306
532.0750	1.3222
532.0500	1.32315
532.0250	1.32103
532.0000	1.32097
531.9750	1.3199
531.9500	1.32096
531.9250	1.32259
531.9000	1.32172
531.8750	1.32178
531.8500	1.32199
531.8250	1.32194
531.8000	1.3182
531.7750	1.31324
531.7500	1.31204
531.7250	1.31079
531.7000	1.31072
531.6750	1.308
531.6500	1.30929
531.6250	1.31192
531.6000	1.31132
531.5750	1.31239
531.5500	1.31109
531.5250	1.31105
531.5000	1.31016
531.4750	1.31013
531.4500	1.30681
531.4250	1.30579
531.4000	1.30186
531.3750	1.30451
531.3500	1.30257
531.3250	1.29925
531.3000	1.2983
531.2750	1.2992
531.2500	1.2981
531.2250	1.29906
531.2000	1.30209
531.1750	1.30356
531.1500	1.3049
531.1250	1.30256
531.1000	1.30348
531.0750	1.30284
531.0500	1.30243
531.0250	1.30295
531.0000	1.30986
530.9750	1.31383
530.9500	1.31995
530.9250	1.32551
530.9000	1.33037
530.8750	1.33137
530.8500	1.3304
530.8250	1.32923
530.8000	1.32855
530.7750	1.32777
530.7500	1.3256
530.7250	1.32477
530.7000	1.32558
530.6750	1.32624
530.6500	1.32953
530.6250	1.32858
530.6000	1.32559
530.5750	1.3272
530.5500	1.32601
530.5250	1.32441
530.5000	1.32038
530.4750	1.31595
530.4500	1.31571
530.4250	1.31785
530.4000	1.31517
530.3750	1.31201
530.3500	1.31267
530.3250	1.31546
530.3000	1.31638
530.2750	1.31765
530.2500	1.31817
530.2250	1.31898
530.2000	1.31693
530.1750	1.31652
530.1500	1.31386
530.1250	1.3136
530.1000	1.31289
530.0750	1.31162
530.0500	1.31246
530.0250	1.30977
530.0000	1.31125
529.9750	1.31036
529.9500	1.30953
529.9250	1.30692
529.9000	1.30618
529.8750	1.30569
529.8500	1.3037
529.8250	1.30292
529.8000	1.30228
529.7750	1.30553
529.7500	1.30468
529.7250	1.3029
529.7000	1.3044
529.6750	1.30303
529.6500	1.30307
529.6250	1.30311
529.6000	1.29946
529.5750	1.30008
529.5500	1.3014
529.5250	1.30168
529.5000	1.30072
529.4750	1.30123
529.4500	1.29929
529.4250	1.29749
529.4000	1.29776
529.3750	1.29605
529.3500	1.29404
529.3250	1.29489
529.3000	1.29602
529.2750	1.29877
529.2500	1.3025
529.2250	1.30268
529.2000	1.30364
529.1750	1.3066
529.1500	1.30771
529.1250	1.31229
529.1000	1.31615
529.0750	1.31836
529.0500	1.32426
529.0250	1.32639
529.0000	1.32881
528.9750	1.32876
528.9500	1.32723
528.9250	1.32242
528.9000	1.32252
528.8750	1.32119
528.8500	1.3203
528.8250	1.32278
528.8000	1.32269
528.7750	1.32669
528.7500	1.32589
528.7250	1.32587
528.7000	1.32672
528.6750	1.32342
528.6500	1.32216
528.6250	1.32138
528.6000	1.32096
528.5750	1.32002
528.5500	1.3172
528.5250	1.31495
528.5000	1.31395
528.4750	1.31529
528.4500	1.31355
528.4250	1.31237
528.4000	1.31341
528.3750	1.31643
528.3500	1.31581
528.3250	1.31375
528.3000	1.31237
528.2750	1.3119
528.2500	1.31051
528.2250	1.30706
528.2000	1.30855
528.1750	1.30996
528.1500	1.30875
528.1250	1.31193
528.1000	1.31176
528.0750	1.31118
528.0500	1.30995
528.0250	1.30842
528.0000	1.30745
527.9750	1.30738
527.9500	1.30464
527.9250	1.303
527.9000	1.30177
527.8750	1.29979
527.8500	1.30116
527.8250	1.30057
527.8000	1.29833
527.7750	1.30058
527.7500	1.30181
527.7250	1.30248
527.7000	1.30044
527.6750	1.29939
527.6500	1.29999
527.6250	1.29837
527.6000	1.29627
527.5750	1.29325
527.5500	1.2919
527.5250	1.29176
527.5000	1.28943
527.4750	1.29233
527.4500	1.29409
527.4250	1.30064
527.4000	1.30379
527.3750	1.30992
527.3500	1.31417
527.3250	1.31986
527.3000	1.32419
527.2750	1.32583
527.2500	1.3275
527.2250	1.3237
527.2000	1.32608
527.1750	1.32611
527.1500	1.32389
527.1250	1.32547
527.1000	1.32584
527.0750	1.32889
527.0500	1.32951
527.0250	1.32685
527.0000	1.32569
526.9750	1.32517
526.9500	1.32406
526.9250	1.32401
526.9000	1.32226
526.8750	1.32211
526.8500	1.32403
526.8250	1.32498
526.8000	1.31794
526.7750	1.31442
526.7500	1.31387
526.7250	1.31361
526.7000	1.3101
526.6750	1.31023
526.6500	1.31372
526.6250	1.31665
526.6000	1.31548
526.5750	1.31728
526.5500	1.31886
526.5250	1.32007
526.5000	1.31556
526.4750	1.31197
526.4500	1.30883
526.4250	1.30655
526.4000	1.30192
526.3750	1.30192
526.3500	1.30339
526.3250	1.30342
526.3000	1.30553
526.2750	1.30324
526.2500	1.30363
526.2250	1.30239
526.2000	1.30183
526.1750	1.30044
526.1500	1.30206
526.1250	1.30473
526.1000	1.30493
526.0750	1.30466
526.0500	1.30486
526.0250	1.30768
526.0000	1.30381
525.9750	1.30085
525.9500	1.29815
525.9250	1.29861
525.9000	1.29648
525.8750	1.29801
525.8500	1.29912
525.8250	1.29852
525.8000	1.30108
525.7750	1.30168
525.7500	1.30685
525.7250	1.3079
525.7000	1.31006
525.6750	1.31387
525.6500	1.31707
525.6250	1.32018
525.6000	1.31954
525.5750	1.31863
525.5500	1.32149
525.5250	1.32099
525.5000	1.3176
525.4750	1.32072
525.4500	1.31746
525.4250	1.31951
525.4000	1.3208
525.3750	1.31797
525.3500	1.32028
525.3250	1.32239
525.3000	1.32375
525.2750	1.32148
525.2500	1.32083
525.2250	1.31711
525.2000	1.31771
525.1750	1.31513
525.1500	1.31333
525.1250	1.31659
525.1000	1.31963
525.0750	1.31863
525.0500	1.32045
525.0250	1.32175
525.0000	1.32099
524.9750	1.31708
524.9500	1.31198
524.9250	1.30998
524.9000	1.30886
524.8750	1.30745
524.8500	1.30754
524.8250	1.30784
524.8000	1.30966
524.7750	1.31258
524.7500	1.31252
524.7250	1.30678
524.7000	1.30702
524.6750	1.30416
524.6500	1.30406
524.6250	1.30145
524.6000	1.30075
524.5750	1.30391
524.5500	1.30397
524.5250	1.30483
524.5000	1.3038
524.4750	1.29881
524.4500	1.29235
524.4250	1.2927
524.4000	1.29247
524.3750	1.29071
524.3500	1.28992
524.3250	1.29232
524.3000	1.2937
524.2750	1.29291
524.2500	1.29288
524.2250	1.29048
524.2000	1.29222
524.1750	1.29457
524.1500	1.29845
524.1250	1.30303
524.1000	1.30812
524.0750	1.31348
524.0500	1.31498
524.0250	1.31576
524.0000	1.31817
523.9750	1.31689
523.9500	1.31741
523.9250	1.31371
523.9000	1.31525
523.8750	1.31331
523.8500	1.31423
523.8250	1.3164
523.8000	1.31272
523.7750	1.31189
523.7500	1.30967
523.7250	1.3097
523.7000	1.30955
523.6750	1.30636
523.6500	1.30536
523.6250	1.30615
523.6000	1.30668
523.5750	1.30752
523.5500	1.30778
523.5250	1.31111
523.5000	1.31043
523.4750	1.31014
523.4500	1.30801
523.4250	1.30711
523.4000	1.30774
523.3750	1.30349
523.3500	1.2991
523.3250	1.29678
523.3000	1.29769
523.2750	1.29898
523.2500	1.29624
523.2250	1.29763
523.2000	1.29661
523.1750	1.29784
523.1500	1.29702
523.1250	1.29605
523.1000	1.29708
523.0750	1.2947
523.0500	1.29429
523.0250	1.29434
523.0000	1.29399
522.9750	1.29295
522.9500	1.29268
522.9250	1.29431
522.9000	1.29196
522.8750	1.29127
522.8500	1.29074
522.8250	1.29123
522.8000	1.28951
522.7750	1.28733
522.7500	1.28803
522.7250	1.28772
522.7000	1.28922
522.6750	1.28895
522.6500	1.28779
522.6250	1.28995
522.6000	1.29455
522.5750	1.2987
522.5500	1.30207
522.5250	1.30483
522.5000	1.30561
522.4750	1.30856
522.4500	1.31168
522.4250	1.30792
522.4000	1.30605
522.3750	1.30479
522.3500	1.30825
522.3250	1.30461
522.3000	1.30307
522.2750	1.30477
522.2500	1.30551
522.2250	1.30594
522.2000	1.30283
522.1750	1.30311
522.1500	1.30216
522.1250	1.30056
522.1000	1.2984
522.0750	1.30104
522.0500	1.30459
522.0250	1.30476
522.0000	1.30672
521.9750	1.30641
521.9500	1.30517
521.9250	1.30412
521.9000	1.30102
521.8750	1.302
521.8500	1.30018
521.8250	1.29582
521.8000	1.2955
521.7750	1.29439
521.7500	1.29364
521.7250	1.2934
521.7000	1.29055
521.6750	1.29153
521.6500	1.29131
521.6250	1.2913
521.6000	1.28867
521.5750	1.28792
521.5500	1.2892
521.5250	1.28956
521.5000	1.28907
521.4750	1.28571
521.4500	1.28665
521.4250	1.28697
521.4000	1.28707
521.3750	1.28443
521.3500	1.28392
521.3250	1.28739
521.3000	1.28877
521.2750	1.28654
521.2500	1.28521
521.2250	1.28857
521.2000	1.28842
521.1750	1.28956
521.1500	1.29097
521.1250	1.29393
521.1000	1.2958
521.0750	1.29842
521.0500	1.29944
521.0250	1.30489
521.0000	1.30587
520.9750	1.30505
520.9500	1.30563
520.9250	1.30766
520.9000	1.30732
520.8750	1.30822
520.8500	1.30899
520.8250	1.3082
520.8000	1.30822
520.7750	1.30758
520.7500	1.3062
520.7250	1.30386
520.7000	1.30474
520.6750	1.30481
520.6500	1.3036
520.6250	1.3027
520.6000	1.30134
520.5750	1.30024
520.5500	1.299
520.5250	1.29833
520.5000	1.29835
520.4750	1.29932
520.4500	1.30243
520.4250	1.29909
520.4000	1.30029
520.3750	1.29726
520.3500	1.29384
520.3250	1.29427
520.3000	1.29162
520.2750	1.29162
520.2500	1.29482
520.2250	1.29784
520.2000	1.29646
520.1750	1.29856
520.1500	1.30043
520.1250	1.30036
520.1000	1.30063
520.0750	1.30029
520.0500	1.30106
520.0250	1.29963
520.0000	1.29889
519.9750	1.29803
519.9500	1.29222
519.9250	1.29033
519.9000	1.28637
519.8750	1.28345
519.8500	1.28229
519.8250	1.28238
519.8000	1.28516
519.7750	1.28835
519.7500	1.29303
519.7250	1.29422
519.7000	1.29958
519.6750	1.30036
519.6500	1.3042
519.6250	1.30952
519.6000	1.31038
519.5750	1.31101
519.5500	1.31048
519.5250	1.30862
519.5000	1.30779
519.4750	1.30822
519.4500	1.30861
519.4250	1.30871
519.4000	1.30795
519.3750	1.30825
519.3500	1.3067
519.3250	1.30728
519.3000	1.3034
519.2750	1.30352
519.2500	1.30272
519.2250	1.30183
519.2000	1.30236
519.1750	1.30443
519.1500	1.30083
519.1250	1.29983
519.1000	1.29919
519.0750	1.29801
519.0500	1.29903
519.0250	1.30089
519.0000	1.2995
518.9750	1.29948
518.9500	1.30006
518.9250	1.29947
518.9000	1.2976
518.8750	1.29674
518.8500	1.2928
518.8250	1.29286
518.8000	1.29393
518.7750	1.2907
518.7500	1.29189
518.7250	1.29128
518.7000	1.29502
518.6750	1.29564
518.6500	1.29729
518.6250	1.2964
518.6000	1.29812
518.5750	1.29962
518.5500	1.29824
518.5250	1.29828
518.5000	1.29801
518.4750	1.2951
518.4500	1.29258
518.4250	1.29315
518.4000	1.29506
518.3750	1.29481
518.3500	1.29535
518.3250	1.30073
518.3000	1.30684
518.2750	1.30738
518.2500	1.30677
518.2250	1.30703
518.2000	1.3081
518.1750	1.30787
518.1500	1.30338
518.1250	1.30428
518.1000	1.30604
518.0750	1.30726
518.0500	1.30706
518.0250	1.30616
518.0000	1.30657
517.9750	1.30594
517.9500	1.30394
517.9250	1.30072
517.9000	1.30121
517.8750	1.29862
517.8500	1.29719
517.8250	1.29672
517.8000	1.29916
517.7750	1.29814
517.7500	1.29854
517.7250	1.30032
517.7000	1.29937
517.6750	1.2986
517.6500	1.29967
517.6250	1.30066
517.6000	1.30054
517.5750	1.29928
517.5500	1.29738
517.5250	1.29713
517.5000	1.29652
517.4750	1.29419
517.4500	1.29083
517.4250	1.28867
517.4000	1.28794
517.3750	1.28596
517.3500	1.28736
517.3250	1.28739
517.3000	1.28863
517.2750	1.28661
517.2500	1.29075
517.2250	1.28954
517.2000	1.29051
517.1750	1.29021
517.1500	1.28492
517.1250	1.28466
517.1000	1.28615
517.0750	1.28823
517.0500	1.29327
517.0250	1.29547
517.0000	1.29932
516.9750	1.30151
516.9500	1.30335
516.9250	1.30406
516.9000	1.30414
516.8750	1.30212
516.8500	1.30472
516.8250	1.30512
516.8000	1.30544
516.7750	1.30493
516.7500	1.30451
516.7250	1.30348
516.7000	1.30134
516.6750	1.30208
516.6500	1.30241
516.6250	1.30553
516.6000	1.30235
516.5750	1.30124
516.5500	1.30122
516.5250	1.30056
516.5000	1.3014
516.4750	1.29984
516.4500	1.29684
516.4250	1.29497
516.4000	1.29428
516.3750	1.29322
516.3500	1.29235
516.3250	1.29049
516.3000	1.29355
516.2750	1.29461
516.2500	1.29415
516.2250	1.29134
516.2000	1.28926
516.1750	1.291
516.1500	1.29017
516.1250	1.28786
516.1000	1.28755
516.0750	1.29013
516.0500	1.293
516.0250	1.2904
516.0000	1.287
515.9750	1.28671
515.9500	1.28412
515.9250	1.2822
515.9000	1.28078
515.8750	1.28395
515.8500	1.28787
515.8250	1.28842
515.8000	1.29245
515.7750	1.2982
515.7500	1.30158
515.7250	1.30246
515.7000	1.30083
515.6750	1.30084
515.6500	1.29981
515.6250	1.29916
515.6000	1.29791
515.5750	1.29465
515.5500	1.29314
515.5250	1.29056
515.5000	1.29465
515.4750	1.29351
515.4500	1.29279
515.4250	1.29556
515.4000	1.29444
515.3750	1.29317
515.3500	1.29083
515.3250	1.28871
515.3000	1.28835
515.2750	1.28706
515.2500	1.28747
515.2250	1.28962
515.2000	1.29138
515.1750	1.29171
515.1500	1.2923
515.1250	1.28762
515.1000	1.28877
515.0750	1.28804
515.0500	1.28587
515.0250	1.28578
515.0000	1.28691
514.9750	1.28661
514.9500	1.28733
514.9250	1.28807
514.9000	1.28703
514.8750	1.28338
514.8500	1.28191
514.8250	1.28202
514.8000	1.28355
514.7750	1.28166
514.7500	1.28176
514.7250	1.28273
514.7000	1.28622
514.6750	1.28681
514.6500	1.28987
514.6250	1.29531
514.6000	1.29527
514.5750	1.2974
514.5500	1.29756
514.5250	1.29854
514.5000	1.29863
514.4750	1.2931
514.4500	1.29336
514.4250	1.2917
514.4000	1.29048
514.3750	1.2887
514.3500	1.28991
514.3250	1.28703
514.3000	1.28931
514.2750	1.28914
514.2500	1.28991
514.2250	1.28675
514.2000	1.28625
514.1750	1.2879
514.1500	1.28585
514.1250	1.28406
514.1000	1.28261
514.0750	1.28362
514.0500	1.2827
514.0250	1.28243
514.0000	1.28289
513.9750	1.28405
513.9500	1.28136
513.9250	1.28162
513.9000	1.28163
513.8750	1.28401
513.8500	1.2843
513.8250	1.28206
513.8000	1.28329
513.7750	1.28341
513.7500	1.28445
513.7250	1.28468
513.7000	1.28039
513.6750	1.27835
513.6500	1.27874
513.6250	1.28047
513.6000	1.27942
513.5750	1.2789
513.5500	1.28104
513.5250	1.28523
513.5000	1.28806
513.4750	1.28907
513.4500	1.28764
513.4250	1.28944
513.4000	1.28963
513.3750	1.29079
513.3500	1.29035
513.3250	1.29428
513.3000	1.29299
513.2750	1.2957
513.2500	1.29501
513.2250	1.29515
513.2000	1.29365
513.1750	1.28846
513.1500	1.2893
513.1250	1.2891
513.1000	1.28899
513.0750	1.2867
513.0500	1.28586
513.0250	1.28539
513.0000	1.28613
512.9750	1.28523
512.9500	1.28596
512.9250	1.28537
512.9000	1.28505
512.8750	1.28837
512.8500	1.29007
512.8250	1.28872
512.8000	1.28775
512.7750	1.28846
512.7500	1.28652
512.7250	1.28403
512.7000	1.28261
512.6750	1.28253
512.6500	1.28224
512.6250	1.281
512.6000	1.282
512.5750	1.28346
512.5500	1.28268
512.5250	1.28064
512.5000	1.28249
512.4750	1.28815
512.4500	1.28781
512.4250	1.28906
512.4000	1.28934
512.3750	1.28964
512.3500	1.29087
512.3250	1.2891
512.3000	1.28698
512.2750	1.28801
512.2500	1.28781
512.2250	1.28854
512.2000	1.2888
512.1750	1.28869
512.1500	1.29057
512.1250	1.29197
512.1000	1.29187
512.0750	1.28988
512.0500	1.29035
512.0250	1.29135
512.0000	1.29216
511.9750	1.29124
511.9500	1.29108
511.9250	1.29204
511.9000	1.2954
511.8750	1.2945
511.8500	1.29953
511.8250	1.29713
511.8000	1.29381
511.7750	1.29282
511.7500	1.29082
511.7250	1.28968
511.7000	1.28694
511.6750	1.28819
511.6500	1.29053
511.6250	1.29387
511.6000	1.29229
511.5750	1.29076
511.5500	1.28784
511.5250	1.28954
511.5000	1.28764
511.4750	1.28489
511.4500	1.28633
511.4250	1.28995
511.4000	1.29422
511.3750	1.29351
511.3500	1.29443
511.3250	1.29459
511.3000	1.29269
511.2750	1.29223
511.2500	1.29023
511.2250	1.28806
511.2000	1.28934
511.1750	1.29015
511.1500	1.28994
511.1250	1.29081
511.1000	1.29372
511.0750	1.29484
511.0500	1.29628
511.0250	1.2918
511.0000	1.29315
510.9750	1.28937
510.9500	1.28747
510.9250	1.28773
510.9000	1.28745
510.8750	1.28734
510.8500	1.28716
510.8250	1.28813
510.8000	1.2875
510.7750	1.2841
510.7500	1.28046
510.7250	1.28168
510.7000	1.28228
510.6750	1.27893
510.6500	1.28101
510.6250	1.2834
510.6000	1.28353
510.5750	1.28527
510.5500	1.28836
510.5250	1.28786
510.5000	1.28907
510.4750	1.28928
510.4500	1.29011
510.4250	1.29031
510.4000	1.28813
510.3750	1.29047
510.3500	1.29168
510.3250	1.29022
510.3000	1.2897
510.2750	1.28844
510.2500	1.28668
510.2250	1.288
510.2000	1.28805
510.1750	1.29108
510.1500	1.29252
510.1250	1.29291
510.1000	1.29339
510.0750	1.29098
510.0500	1.29124
510.0250	1.28732
510.0000	1.28858
509.9750	1.28536
509.9500	1.28906
509.9250	1.28923
509.9000	1.28838
509.8750	1.28597
509.8500	1.28365
509.8250	1.28334
509.8000	1.28352
509.7750	1.28181
509.7500	1.28332
509.7250	1.28302
509.7000	1.2859
509.6750	1.28884
509.6500	1.28848
509.6250	1.29066
509.6000	1.29046
509.5750	1.29044
509.5500	1.29343
509.5250	1.29426
509.5000	1.29407
509.4750	1.29588
509.4500	1.29332
509.4250	1.29203
509.4000	1.29091
509.3750	1.29054
509.3500	1.28841
509.3250	1.28655
509.3000	1.28442
509.2750	1.2864
509.2500	1.28534
509.2250	1.28442
509.2000	1.28416
509.1750	1.28417
509.1500	1.2861
509.1250	1.2859
509.1000	1.28755
509.0750	1.28812
509.0500	1.28765
509.0250	1.29032
509.0000	1.28706
508.9750	1.28577
508.9500	1.28779
508.9250	1.28422
508.9000	1.28237
508.8750	1.27997
508.8500	1.2795
508.8250	1.28104
508.8000	1.27751
508.7750	1.28166
508.7500	1.2824
508.7250	1.28234
508.7000	1.28567
508.6750	1.28869
508.6500	1.29094
508.6250	1.29302
508.6000	1.29499
508.5750	1.29635
508.5500	1.29747
508.5250	1.29558
508.5000	1.29478
508.4750	1.29258
508.4500	1.29133
508.4250	1.28873
508.4000	1.28591
508.3750	1.28542
508.3500	1.28306
508.3250	1.28548
508.3000	1.28182
508.2750	1.27882
508.2500	1.28135
508.2250	1.27949
508.2000	1.27888
508.1750	1.27592
508.1500	1.27593
508.1250	1.27709
508.1000	1.27742
508.0750	1.27763
508.0500	1.27988
508.0250	1.27821
508.0000	1.28028
507.9750	1.28072
507.9500	1.28146
507.9250	1.28182
507.9000	1.28138
507.8750	1.2833
507.8500	1.28372
507.8250	1.28209
507.8000	1.28431
507.7750	1.2859
507.7500	1.28494
507.7250	1.28509
507.7000	1.29131
507.6750	1.29183
507.6500	1.29166
507.6250	1.28865
507.6000	1.29006
507.5750	1.28843
507.5500	1.28572
507.5250	1.28064
507.5000	1.27643
507.4750	1.27806
507.4500	1.27954
507.4250	1.27945
507.4000	1.27786
507.3750	1.27684
507.3500	1.27758
507.3250	1.27606
507.3000	1.2739
507.2750	1.27133
507.2500	1.27246
507.2250	1.27462
507.2000	1.27422
507.1750	1.27288
507.1500	1.27513
507.1250	1.27805
507.1000	1.27766
507.0750	1.27849
507.0500	1.27777
507.0250	1.27851
507.0000	1.2807
506.9750	1.27715
506.9500	1.27695
506.9250	1.27778
506.9000	1.27882
506.8750	1.27947
506.8500	1.27856
506.8250	1.2795
506.8000	1.27923
506.7750	1.28238
506.7500	1.28169
506.7250	1.28244
506.7000	1.27957
506.6750	1.28154
506.6500	1.28224
506.6250	1.27828
506.6000	1.27603
506.5750	1.27577
506.5500	1.27928
506.5250	1.2785
506.5000	1.27548
506.4750	1.27949
506.4500	1.28103
506.4250	1.28261
506.4000	1.27934
506.3750	1.28118
506.3500	1.28399
506.3250	1.28614
506.3000	1.28484
506.2750	1.28313
506.2500	1.28338
506.2250	1.28574
506.2000	1.2839
506.1750	1.28292
506.1500	1.28114
506.1250	1.28321
506.1000	1.28296
506.0750	1.28184
506.0500	1.28063
506.0250	1.27901
506.0000	1.27624
505.9750	1.27539
505.9500	1.27415
505.9250	1.2737
505.9000	1.27602
505.8750	1.27618
505.8500	1.27995
505.8250	1.28355
505.8000	1.28329
505.7750	1.28333
505.7500	1.28324
505.7250	1.28224
505.7000	1.28287
505.6750	1.28727
505.6500	1.28514
505.6250	1.28654
505.6000	1.28536
505.5750	1.29039
505.5500	1.28959
505.5250	1.285
505.5000	1.28218
505.4750	1.2834
505.4500	1.28355
505.4250	1.28131
505.4000	1.27942
505.3750	1.27822
505.3500	1.28342
505.3250	1.28239
505.3000	1.28374
505.2750	1.28096
505.2500	1.28223
505.2250	1.28165
505.2000	1.28172
505.1750	1.28303
505.1500	1.28138
505.1250	1.28424
505.1000	1.28493
505.0750	1.28456
505.0500	1.28346
505.0250	1.28307
505.0000	1.28297
504.9750	1.28489
504.9500	1.28424
504.9250	1.2851
504.9000	1.28524
504.8750	1.28712
504.8500	1.28714
504.8250	1.28543
504.8000	1.2829
504.7750	1.28248
504.7500	1.28366
504.7250	1.28391
504.7000	1.28402
504.6750	1.28285
504.6500	1.28551
504.6250	1.28701
504.6000	1.28611
504.5750	1.28155
504.5500	1.28344
504.5250	1.28665
504.5000	1.28519
504.4750	1.283
504.4500	1.28407
504.4250	1.2846
504.4000	1.28136
504.3750	1.28245
504.3500	1.28137
504.3250	1.28277
504.3000	1.28348
504.2750	1.2847
504.2500	1.28364
504.2250	1.28394
504.2000	1.28512
504.1750	1.28843
504.1500	1.28686
504.1250	1.2882
504.1000	1.28719
504.0750	1.28416
504.0500	1.28266
504.0250	1.28013
504.0000	1.28112
503.9750	1.28288
503.9500	1.28472
503.9250	1.28695
503.9000	1.29028
503.8750	1.28771
503.8500	1.28927
503.8250	1.28681
503.8000	1.28512
503.7750	1.28508
503.7500	1.28345
503.7250	1.28194
503.7000	1.28222
503.6750	1.28494
503.6500	1.28768
503.6250	1.28822
503.6000	1.2874
503.5750	1.28718
503.5500	1.28847
503.5250	1.28746
503.5000	1.28533
503.4750	1.28535
503.4500	1.2848
503.4250	1.28312
503.4000	1.28631
503.3750	1.28865
503.3500	1.28892
503.3250	1.28585
503.3000	1.28617
503.2750	1.28666
503.2500	1.2875
503.2250	1.2834
503.2000	1.28243
503.1750	1.28306
503.1500	1.28286
503.1250	1.2858
503.1000	1.28613
503.0750	1.28545
503.0500	1.28629
503.0250	1.28591
503.0000	1.28891
502.9750	1.28638
502.9500	1.28619
502.9250	1.28804
502.9000	1.29052
502.8750	1.29223
502.8500	1.2899
502.8250	1.28942
502.8000	1.28812
502.7750	1.28546
502.7500	1.28317
502.7250	1.28178
502.7000	1.28047
502.6750	1.28081
502.6500	1.28093
502.6250	1.28405
502.6000	1.28358
502.5750	1.28329
502.5500	1.28289
502.5250	1.28533
502.5000	1.28467
502.4750	1.28436
502.4500	1.28164
502.4250	1.27993
502.4000	1.28045
502.3750	1.27746
502.3500	1.27668
502.3250	1.27704
502.3000	1.27799
502.2750	1.27682
502.2500	1.27702
502.2250	1.27921
502.2000	1.281
502.1750	1.28257
502.1500	1.28352
502.1250	1.28585
502.1000	1.28566
502.0750	1.28472
502.0500	1.28315
502.0250	1.28291
502.0000	1.28211
501.9750	1.27999
501.9500	1.27882
501.9250	1.27974
501.9000	1.28027
501.8750	1.28303
501.8500	1.28257
501.8250	1.28151
501.8000	1.28457
501.7750	1.28309
501.7500	1.28283
501.7250	1.28298
501.7000	1.28135
501.6750	1.28103
501.6500	1.2776
501.6250	1.28037
501.6000	1.28094
501.5750	1.27862
501.5500	1.27945
501.5250	1.27868
501.5000	1.27631
501.4750	1.27753
501.4500	1.27624
501.4250	1.27585
501.4000	1.27627
501.3750	1.27486
501.3500	1.27765
501.3250	1.27776
501.3000	1.27595
501.2750	1.27772
501.2500	1.27599
501.2250	1.27745
501.2000	1.27749
501.1750	1.27762
501.1500	1.27722
501.1250	1.27621
501.1000	1.27547
501.0750	1.27669
501.0500	1.27804
501.0250	1.2797
501.0000	1.27794
500.9750	1.28057
500.9500	1.27956
500.9250	1.2798
500.9000	1.2783
500.8750	1.27789
500.8500	1.2775
500.8250	1.27829
500.8000	1.27714
500.7750	1.27582
500.7500	1.27466
500.7250	1.27334
500.7000	1.27523
500.6750	1.27416
500.6500	1.27417
500.6250	1.27536
500.6000	1.27708
500.5750	1.27721
500.5500	1.27489
500.5250	1.277
500.5000	1.2783
500.4750	1.27637
500.4500	1.27765
500.4250	1.27486
500.4000	1.27667
500.3750	1.28006
500.3500	1.279
500.3250	1.27965
500.3000	1.27873
500.2750	1.28018
500.2500	1.27817
500.2250	1.27555
500.2000	1.26933
500.1750	1.27092
500.1500	1.26799
500.1250	1.26602
500.1000	1.26748
500.0750	1.26808
500.0500	1.2683
500.0250	1.26923
500.0000	1.27109

##### Extended Information
[Comments]
Sample name
Comment
User
Division
Company	FU Berlin

[Detailed Information]
Creation date	04.06.2018 12:16

Data array type	Linear data array
Horizontal axis	Wavelength [nm]
Vertical axis	%T
Start	650 nm
End	500 nm
Data interval	0.025 nm
Data points	6001    

[Measurement Information]
Instrument name	JASCO-V750
Model name	V-750
Serial No.	A007961799

Measurement date	04.06.2018 11:30

Photometric mode	%T
Measurement range	650 - 500 nm
Data interval	0.025 nm
Bandwidth	0.1 nm
Response	0.96 sec
Scan speed	10 nm/min
Change source at	340 nm
Light source	D2/WI
Filter exchange	Step
Correction	None
No. of cycles	4
Cycle interval	0 sec
Cycle No.	3

