TITLE	
DATA TYPE	ULTRAVIOLET SPECTRUM
ORIGIN	JASCO
OWNER	
DATE	18/06/04
TIME	12:16:31
SPECTROMETER/DATA SYSTEM	
LOCALE	1031
RESOLUTION	
DELTAX	-0.025
XUNITS	NANOMETERS
YUNITS	TRANSMITTANCE
FIRSTX	  650.0000
LASTX	  500.0000
NPOINTS	    6001
FIRSTY	     1.53992
MAXY	     1.55413
MINY	     1.26864
XYDATA
650.0000	1.53992
649.9750	1.54124
649.9500	1.54259
649.9250	1.54258
649.9000	1.54281
649.8750	1.54403
649.8500	1.54316
649.8250	1.54403
649.8000	1.54456
649.7750	1.54608
649.7500	1.54552
649.7250	1.54626
649.7000	1.5412
649.6750	1.5418
649.6500	1.53973
649.6250	1.54026
649.6000	1.53995
649.5750	1.54065
649.5500	1.54487
649.5250	1.54427
649.5000	1.54524
649.4750	1.54457
649.4500	1.53988
649.4250	1.53969
649.4000	1.53979
649.3750	1.53893
649.3500	1.53954
649.3250	1.54344
649.3000	1.54538
649.2750	1.54793
649.2500	1.54661
649.2250	1.54625
649.2000	1.54601
649.1750	1.54379
649.1500	1.54274
649.1250	1.54215
649.1000	1.53796
649.0750	1.53991
649.0500	1.53941
649.0250	1.54579
649.0000	1.54459
648.9750	1.54357
648.9500	1.54468
648.9250	1.54608
648.9000	1.54591
648.8750	1.54518
648.8500	1.5408
648.8250	1.54172
648.8000	1.54104
648.7750	1.53917
648.7500	1.53829
648.7250	1.53852
648.7000	1.53867
648.6750	1.54064
648.6500	1.54012
648.6250	1.54054
648.6000	1.5425
648.5750	1.54015
648.5500	1.53752
648.5250	1.53464
648.5000	1.5345
648.4750	1.53554
648.4500	1.53046
648.4250	1.53783
648.4000	1.53698
648.3750	1.54282
648.3500	1.54421
648.3250	1.5456
648.3000	1.54463
648.2750	1.54257
648.2500	1.5391
648.2250	1.5385
648.2000	1.53559
648.1750	1.53573
648.1500	1.53556
648.1250	1.5374
648.1000	1.53926
648.0750	1.5377
648.0500	1.53548
648.0250	1.53511
648.0000	1.53471
647.9750	1.53135
647.9500	1.53125
647.9250	1.53604
647.9000	1.54147
647.8750	1.54168
647.8500	1.54353
647.8250	1.54346
647.8000	1.54521
647.7750	1.54133
647.7500	1.53907
647.7250	1.53869
647.7000	1.53923
647.6750	1.53909
647.6500	1.53585
647.6250	1.53576
647.6000	1.53773
647.5750	1.53429
647.5500	1.53038
647.5250	1.5299
647.5000	1.53446
647.4750	1.53793
647.4500	1.53571
647.4250	1.54005
647.4000	1.54362
647.3750	1.54304
647.3500	1.54277
647.3250	1.53924
647.3000	1.54262
647.2750	1.54575
647.2500	1.54483
647.2250	1.54443
647.2000	1.54316
647.1750	1.54533
647.1500	1.54349
647.1250	1.54123
647.1000	1.53864
647.0750	1.537
647.0500	1.53895
647.0250	1.53509
647.0000	1.53621
646.9750	1.53412
646.9500	1.53316
646.9250	1.53256
646.9000	1.5304
646.8750	1.53127
646.8500	1.5312
646.8250	1.53386
646.8000	1.53451
646.7750	1.53165
646.7500	1.5323
646.7250	1.53358
646.7000	1.53246
646.6750	1.5366
646.6500	1.53367
646.6250	1.53534
646.6000	1.53728
646.5750	1.54157
646.5500	1.53824
646.5250	1.5362
646.5000	1.53839
646.4750	1.53848
646.4500	1.53777
646.4250	1.53396
646.4000	1.53424
646.3750	1.53436
646.3500	1.53277
646.3250	1.53246
646.3000	1.53311
646.2750	1.53351
646.2500	1.53504
646.2250	1.53681
646.2000	1.54223
646.1750	1.53862
646.1500	1.54078
646.1250	1.54013
646.1000	1.54055
646.0750	1.54078
646.0500	1.54136
646.0250	1.54504
646.0000	1.54486
645.9750	1.54336
645.9500	1.5457
645.9250	1.54469
645.9000	1.54124
645.8750	1.5399
645.8500	1.53792
645.8250	1.53751
645.8000	1.53784
645.7750	1.53858
645.7500	1.54183
645.7250	1.54279
645.7000	1.54203
645.6750	1.54023
645.6500	1.5427
645.6250	1.5442
645.6000	1.53861
645.5750	1.53632
645.5500	1.53732
645.5250	1.54125
645.5000	1.54018
645.4750	1.53981
645.4500	1.54367
645.4250	1.54378
645.4000	1.54517
645.3750	1.54331
645.3500	1.54568
645.3250	1.54377
645.3000	1.5422
645.2750	1.54363
645.2500	1.54159
645.2250	1.54199
645.2000	1.54297
645.1750	1.54418
645.1500	1.54492
645.1250	1.54256
645.1000	1.54102
645.0750	1.54224
645.0500	1.54414
645.0250	1.54026
645.0000	1.54154
644.9750	1.54248
644.9500	1.54178
644.9250	1.54477
644.9000	1.54219
644.8750	1.54283
644.8500	1.54111
644.8250	1.53901
644.8000	1.53957
644.7750	1.53542
644.7500	1.53985
644.7250	1.54003
644.7000	1.54164
644.6750	1.54229
644.6500	1.54275
644.6250	1.54425
644.6000	1.5438
644.5750	1.54299
644.5500	1.54328
644.5250	1.54222
644.5000	1.54252
644.4750	1.54528
644.4500	1.54383
644.4250	1.54132
644.4000	1.54134
644.3750	1.53956
644.3500	1.53792
644.3250	1.53725
644.3000	1.53907
644.2750	1.53973
644.2500	1.54219
644.2250	1.54286
644.2000	1.54789
644.1750	1.55145
644.1500	1.55153
644.1250	1.55315
644.1000	1.5509
644.0750	1.55035
644.0500	1.54905
644.0250	1.54499
644.0000	1.54515
643.9750	1.54174
643.9500	1.54012
643.9250	1.54364
643.9000	1.54423
643.8750	1.54747
643.8500	1.54935
643.8250	1.55194
643.8000	1.55375
643.7750	1.55413
643.7500	1.54888
643.7250	1.54394
643.7000	1.54089
643.6750	1.54051
643.6500	1.53951
643.6250	1.54197
643.6000	1.5409
643.5750	1.54425
643.5500	1.54266
643.5250	1.54441
643.5000	1.54655
643.4750	1.54421
643.4500	1.54286
643.4250	1.54127
643.4000	1.5432
643.3750	1.54378
643.3500	1.54134
643.3250	1.53899
643.3000	1.54155
643.2750	1.54147
643.2500	1.54426
643.2250	1.5487
643.2000	1.55023
643.1750	1.55104
643.1500	1.55187
643.1250	1.55136
643.1000	1.55121
643.0750	1.54915
643.0500	1.54615
643.0250	1.54607
643.0000	1.54352
642.9750	1.54339
642.9500	1.54546
642.9250	1.54299
642.9000	1.54115
642.8750	1.54573
642.8500	1.54573
642.8250	1.5482
642.8000	1.54747
642.7750	1.5471
642.7500	1.54844
642.7250	1.55033
642.7000	1.54949
642.6750	1.54686
642.6500	1.54331
642.6250	1.54336
642.6000	1.54498
642.5750	1.54704
642.5500	1.54338
642.5250	1.54115
642.5000	1.54572
642.4750	1.54712
642.4500	1.54543
642.4250	1.54448
642.4000	1.54492
642.3750	1.54257
642.3500	1.54154
642.3250	1.54002
642.3000	1.53878
642.2750	1.5386
642.2500	1.54122
642.2250	1.54324
642.2000	1.54348
642.1750	1.54676
642.1500	1.54436
642.1250	1.54008
642.1000	1.53944
642.0750	1.53852
642.0500	1.53755
642.0250	1.53583
642.0000	1.53569
641.9750	1.5422
641.9500	1.54295
641.9250	1.54465
641.9000	1.5437
641.8750	1.54308
641.8500	1.54317
641.8250	1.53953
641.8000	1.53673
641.7750	1.53799
641.7500	1.53698
641.7250	1.53672
641.7000	1.53772
641.6750	1.54004
641.6500	1.54343
641.6250	1.54083
641.6000	1.54238
641.5750	1.54105
641.5500	1.54123
641.5250	1.54447
641.5000	1.5427
641.4750	1.54229
641.4500	1.54295
641.4250	1.54598
641.4000	1.54563
641.3750	1.54186
641.3500	1.53961
641.3250	1.53834
641.3000	1.54088
641.2750	1.53898
641.2500	1.54166
641.2250	1.53985
641.2000	1.54391
641.1750	1.54365
641.1500	1.54431
641.1250	1.5418
641.1000	1.54093
641.0750	1.54099
641.0500	1.54166
641.0250	1.54069
641.0000	1.53907
640.9750	1.54395
640.9500	1.54348
640.9250	1.54162
640.9000	1.54173
640.8750	1.54293
640.8500	1.54118
640.8250	1.53946
640.8000	1.53877
640.7750	1.54172
640.7500	1.54349
640.7250	1.54147
640.7000	1.54194
640.6750	1.54163
640.6500	1.54271
640.6250	1.54255
640.6000	1.54282
640.5750	1.54404
640.5500	1.54106
640.5250	1.54448
640.5000	1.54432
640.4750	1.54395
640.4500	1.54213
640.4250	1.53938
640.4000	1.54177
640.3750	1.54123
640.3500	1.53908
640.3250	1.53691
640.3000	1.53362
640.2750	1.53526
640.2500	1.53217
640.2250	1.52996
640.2000	1.53257
640.1750	1.53116
640.1500	1.5358
640.1250	1.53778
640.1000	1.53904
640.0750	1.54322
640.0500	1.54165
640.0250	1.53953
640.0000	1.53941
639.9750	1.53834
639.9500	1.5375
639.9250	1.53676
639.9000	1.53971
639.8750	1.53766
639.8500	1.53983
639.8250	1.53908
639.8000	1.53821
639.7750	1.53622
639.7500	1.53671
639.7250	1.53571
639.7000	1.53376
639.6750	1.53227
639.6500	1.53273
639.6250	1.53416
639.6000	1.53497
639.5750	1.53389
639.5500	1.53607
639.5250	1.5372
639.5000	1.53904
639.4750	1.53889
639.4500	1.53639
639.4250	1.53818
639.4000	1.53739
639.3750	1.53738
639.3500	1.53991
639.3250	1.53595
639.3000	1.53562
639.2750	1.53688
639.2500	1.53695
639.2250	1.53682
639.2000	1.53228
639.1750	1.53207
639.1500	1.53102
639.1250	1.5335
639.1000	1.53508
639.0750	1.53597
639.0500	1.53861
639.0250	1.54045
639.0000	1.54303
638.9750	1.54452
638.9500	1.54261
638.9250	1.54447
638.9000	1.54306
638.8750	1.54348
638.8500	1.53876
638.8250	1.53706
638.8000	1.53532
638.7750	1.53791
638.7500	1.5353
638.7250	1.53441
638.7000	1.53616
638.6750	1.53691
638.6500	1.53739
638.6250	1.53722
638.6000	1.53591
638.5750	1.53809
638.5500	1.5369
638.5250	1.53761
638.5000	1.53694
638.4750	1.53723
638.4500	1.53874
638.4250	1.53638
638.4000	1.53548
638.3750	1.53344
638.3500	1.52981
638.3250	1.53238
638.3000	1.53026
638.2750	1.53157
638.2500	1.53095
638.2250	1.52902
638.2000	1.53085
638.1750	1.52971
638.1500	1.52753
638.1250	1.53047
638.1000	1.53043
638.0750	1.52932
638.0500	1.52959
638.0250	1.53231
638.0000	1.53086
637.9750	1.53266
637.9500	1.53091
637.9250	1.53195
637.9000	1.53215
637.8750	1.53114
637.8500	1.52973
637.8250	1.52632
637.8000	1.52751
637.7750	1.5262
637.7500	1.52588
637.7250	1.52426
637.7000	1.52916
637.6750	1.53037
637.6500	1.53048
637.6250	1.52755
637.6000	1.52749
637.5750	1.52702
637.5500	1.52703
637.5250	1.52231
637.5000	1.52088
637.4750	1.52155
637.4500	1.52171
637.4250	1.52293
637.4000	1.52176
637.3750	1.5215
637.3500	1.52248
637.3250	1.52271
637.3000	1.52404
637.2750	1.5234
637.2500	1.52572
637.2250	1.52908
637.2000	1.52949
637.1750	1.52951
637.1500	1.53065
637.1250	1.53218
637.1000	1.52907
637.0750	1.52615
637.0500	1.52789
637.0250	1.52944
637.0000	1.5297
636.9750	1.52852
636.9500	1.52718
636.9250	1.52843
636.9000	1.52429
636.8750	1.52382
636.8500	1.5251
636.8250	1.52399
636.8000	1.52363
636.7750	1.52819
636.7500	1.52874
636.7250	1.52784
636.7000	1.52696
636.6750	1.52221
636.6500	1.52244
636.6250	1.52324
636.6000	1.52091
636.5750	1.51889
636.5500	1.52002
636.5250	1.52185
636.5000	1.52192
636.4750	1.52327
636.4500	1.52099
636.4250	1.52092
636.4000	1.5237
636.3750	1.52537
636.3500	1.52188
636.3250	1.52159
636.3000	1.52276
636.2750	1.52319
636.2500	1.52381
636.2250	1.52199
636.2000	1.52091
636.1750	1.52238
636.1500	1.52557
636.1250	1.52739
636.1000	1.52893
636.0750	1.53027
636.0500	1.53343
636.0250	1.53596
636.0000	1.53453
635.9750	1.53381
635.9500	1.53232
635.9250	1.52981
635.9000	1.5305
635.8750	1.52797
635.8500	1.52483
635.8250	1.52232
635.8000	1.52127
635.7750	1.5229
635.7500	1.52527
635.7250	1.52527
635.7000	1.5257
635.6750	1.52784
635.6500	1.53005
635.6250	1.53082
635.6000	1.52789
635.5750	1.52536
635.5500	1.52307
635.5250	1.52577
635.5000	1.52425
635.4750	1.52219
635.4500	1.52238
635.4250	1.52129
635.4000	1.52473
635.3750	1.52174
635.3500	1.52462
635.3250	1.52424
635.3000	1.52634
635.2750	1.52464
635.2500	1.52326
635.2250	1.52067
635.2000	1.5203
635.1750	1.51816
635.1500	1.52038
635.1250	1.52122
635.1000	1.52401
635.0750	1.52161
635.0500	1.52306
635.0250	1.52438
635.0000	1.52653
634.9750	1.52583
634.9500	1.5249
634.9250	1.52586
634.9000	1.52478
634.8750	1.52164
634.8500	1.52542
634.8250	1.52517
634.8000	1.52518
634.7750	1.5263
634.7500	1.52537
634.7250	1.52891
634.7000	1.52805
634.6750	1.52934
634.6500	1.53053
634.6250	1.5266
634.6000	1.52591
634.5750	1.52309
634.5500	1.52349
634.5250	1.5218
634.5000	1.51689
634.4750	1.52009
634.4500	1.52325
634.4250	1.52542
634.4000	1.52647
634.3750	1.52679
634.3500	1.52803
634.3250	1.5279
634.3000	1.52421
634.2750	1.52292
634.2500	1.52348
634.2250	1.52953
634.2000	1.52597
634.1750	1.52682
634.1500	1.52644
634.1250	1.52518
634.1000	1.52611
634.0750	1.52475
634.0500	1.523
634.0250	1.52318
634.0000	1.52605
633.9750	1.52651
633.9500	1.52797
633.9250	1.52633
633.9000	1.52393
633.8750	1.52763
633.8500	1.52767
633.8250	1.52605
633.8000	1.5253
633.7750	1.52498
633.7500	1.52551
633.7250	1.52434
633.7000	1.52454
633.6750	1.52338
633.6500	1.52234
633.6250	1.52089
633.6000	1.51688
633.5750	1.51973
633.5500	1.51811
633.5250	1.51785
633.5000	1.51704
633.4750	1.52181
633.4500	1.52302
633.4250	1.52244
633.4000	1.52341
633.3750	1.52284
633.3500	1.52263
633.3250	1.52408
633.3000	1.5228
633.2750	1.52199
633.2500	1.52011
633.2250	1.52174
633.2000	1.52399
633.1750	1.51974
633.1500	1.51889
633.1250	1.52113
633.1000	1.52096
633.0750	1.52122
633.0500	1.51601
633.0250	1.5176
633.0000	1.51774
632.9750	1.51613
632.9500	1.51406
632.9250	1.51436
632.9000	1.51743
632.8750	1.52083
632.8500	1.52302
632.8250	1.52388
632.8000	1.52601
632.7750	1.52874
632.7500	1.5291
632.7250	1.52713
632.7000	1.52793
632.6750	1.52971
632.6500	1.53123
632.6250	1.53239
632.6000	1.53405
632.5750	1.53411
632.5500	1.53387
632.5250	1.53026
632.5000	1.53059
632.4750	1.53009
632.4500	1.53033
632.4250	1.52733
632.4000	1.52633
632.3750	1.52856
632.3500	1.52862
632.3250	1.52677
632.3000	1.52754
632.2750	1.52659
632.2500	1.5267
632.2250	1.52595
632.2000	1.5246
632.1750	1.52279
632.1500	1.52372
632.1250	1.52573
632.1000	1.52389
632.0750	1.52445
632.0500	1.52445
632.0250	1.52548
632.0000	1.52698
631.9750	1.52705
631.9500	1.52799
631.9250	1.52672
631.9000	1.5276
631.8750	1.52634
631.8500	1.52547
631.8250	1.52484
631.8000	1.5267
631.7750	1.52301
631.7500	1.52407
631.7250	1.52608
631.7000	1.52712
631.6750	1.5262
631.6500	1.52533
631.6250	1.52113
631.6000	1.52816
631.5750	1.53179
631.5500	1.53332
631.5250	1.53067
631.5000	1.53588
631.4750	1.53582
631.4500	1.53802
631.4250	1.53141
631.4000	1.53204
631.3750	1.53217
631.3500	1.53078
631.3250	1.52863
631.3000	1.52736
631.2750	1.52717
631.2500	1.5276
631.2250	1.52943
631.2000	1.5262
631.1750	1.52552
631.1500	1.52265
631.1250	1.5249
631.1000	1.52316
631.0750	1.52476
631.0500	1.5229
631.0250	1.52541
631.0000	1.52979
630.9750	1.53115
630.9500	1.53234
630.9250	1.53473
630.9000	1.53602
630.8750	1.5376
630.8500	1.53428
630.8250	1.53027
630.8000	1.52936
630.7750	1.52983
630.7500	1.5283
630.7250	1.52553
630.7000	1.52494
630.6750	1.52665
630.6500	1.52775
630.6250	1.52931
630.6000	1.5291
630.5750	1.52814
630.5500	1.53107
630.5250	1.5298
630.5000	1.52675
630.4750	1.52568
630.4500	1.52563
630.4250	1.52132
630.4000	1.51702
630.3750	1.51703
630.3500	1.52181
630.3250	1.52682
630.3000	1.52551
630.2750	1.52608
630.2500	1.52893
630.2250	1.532
630.2000	1.53183
630.1750	1.5298
630.1500	1.52805
630.1250	1.52937
630.1000	1.52807
630.0750	1.52644
630.0500	1.52325
630.0250	1.52201
630.0000	1.5203
629.9750	1.52115
629.9500	1.51996
629.9250	1.52329
629.9000	1.52316
629.8750	1.52072
629.8500	1.52461
629.8250	1.52124
629.8000	1.5236
629.7750	1.52464
629.7500	1.52549
629.7250	1.52569
629.7000	1.52768
629.6750	1.52849
629.6500	1.52896
629.6250	1.52675
629.6000	1.52473
629.5750	1.52536
629.5500	1.52684
629.5250	1.52495
629.5000	1.52181
629.4750	1.52636
629.4500	1.52619
629.4250	1.52759
629.4000	1.52539
629.3750	1.52117
629.3500	1.52183
629.3250	1.51972
629.3000	1.52007
629.2750	1.52183
629.2500	1.52197
629.2250	1.52608
629.2000	1.52804
629.1750	1.53067
629.1500	1.53247
629.1250	1.53458
629.1000	1.53419
629.0750	1.53002
629.0500	1.52945
629.0250	1.53003
629.0000	1.52508
628.9750	1.52392
628.9500	1.52011
628.9250	1.51776
628.9000	1.51792
628.8750	1.51827
628.8500	1.51721
628.8250	1.51716
628.8000	1.51584
628.7750	1.51836
628.7500	1.51807
628.7250	1.51615
628.7000	1.51683
628.6750	1.51872
628.6500	1.51606
628.6250	1.51539
628.6000	1.51494
628.5750	1.5165
628.5500	1.517
628.5250	1.5174
628.5000	1.5202
628.4750	1.52324
628.4500	1.52759
628.4250	1.52595
628.4000	1.52285
628.3750	1.52216
628.3500	1.51878
628.3250	1.51828
628.3000	1.51449
628.2750	1.51433
628.2500	1.51594
628.2250	1.51843
628.2000	1.5206
628.1750	1.5208
628.1500	1.51911
628.1250	1.51761
628.1000	1.51737
628.0750	1.51717
628.0500	1.51822
628.0250	1.51732
628.0000	1.51774
627.9750	1.51617
627.9500	1.51666
627.9250	1.51942
627.9000	1.5179
627.8750	1.51565
627.8500	1.51562
627.8250	1.51457
627.8000	1.51521
627.7750	1.5159
627.7500	1.51431
627.7250	1.51483
627.7000	1.51381
627.6750	1.51038
627.6500	1.51173
627.6250	1.51058
627.6000	1.5114
627.5750	1.51197
627.5500	1.51013
627.5250	1.51459
627.5000	1.51623
627.4750	1.51893
627.4500	1.51765
627.4250	1.52129
627.4000	1.52188
627.3750	1.5215
627.3500	1.52092
627.3250	1.52308
627.3000	1.52038
627.2750	1.52246
627.2500	1.52422
627.2250	1.52178
627.2000	1.52115
627.1750	1.5205
627.1500	1.52351
627.1250	1.51932
627.1000	1.5151
627.0750	1.51753
627.0500	1.51902
627.0250	1.51835
627.0000	1.51693
626.9750	1.51668
626.9500	1.51917
626.9250	1.51637
626.9000	1.51725
626.8750	1.52024
626.8500	1.51591
626.8250	1.516
626.8000	1.51694
626.7750	1.51717
626.7500	1.51671
626.7250	1.51305
626.7000	1.51048
626.6750	1.5141
626.6500	1.51292
626.6250	1.51446
626.6000	1.51661
626.5750	1.51656
626.5500	1.51813
626.5250	1.51875
626.5000	1.51574
626.4750	1.51368
626.4500	1.51218
626.4250	1.51299
626.4000	1.51354
626.3750	1.51377
626.3500	1.51233
626.3250	1.51384
626.3000	1.51482
626.2750	1.51358
626.2500	1.51177
626.2250	1.51323
626.2000	1.51473
626.1750	1.5142
626.1500	1.51604
626.1250	1.51322
626.1000	1.51137
626.0750	1.50977
626.0500	1.50724
626.0250	1.50431
626.0000	1.50412
625.9750	1.50459
625.9500	1.50954
625.9250	1.51315
625.9000	1.51335
625.8750	1.51682
625.8500	1.5165
625.8250	1.51799
625.8000	1.51545
625.7750	1.51465
625.7500	1.51586
625.7250	1.51427
625.7000	1.51538
625.6750	1.51628
625.6500	1.51899
625.6250	1.51631
625.6000	1.51331
625.5750	1.51609
625.5500	1.51391
625.5250	1.5132
625.5000	1.508
625.4750	1.50827
625.4500	1.50826
625.4250	1.50614
625.4000	1.50307
625.3750	1.50418
625.3500	1.50093
625.3250	1.50513
625.3000	1.50178
625.2750	1.50489
625.2500	1.50715
625.2250	1.50344
625.2000	1.50585
625.1750	1.50555
625.1500	1.5073
625.1250	1.508
625.1000	1.50673
625.0750	1.50928
625.0500	1.50857
625.0250	1.50934
625.0000	1.50746
624.9750	1.5059
624.9500	1.50563
624.9250	1.50683
624.9000	1.50921
624.8750	1.50848
624.8500	1.50746
624.8250	1.51016
624.8000	1.51129
624.7750	1.51078
624.7500	1.50997
624.7250	1.50733
624.7000	1.51021
624.6750	1.50888
624.6500	1.50764
624.6250	1.50991
624.6000	1.50871
624.5750	1.51087
624.5500	1.50927
624.5250	1.50803
624.5000	1.50864
624.4750	1.50623
624.4500	1.50555
624.4250	1.50443
624.4000	1.50203
624.3750	1.50354
624.3500	1.50311
624.3250	1.50226
624.3000	1.50437
624.2750	1.5054
624.2500	1.50762
624.2250	1.50603
624.2000	1.50512
624.1750	1.50693
624.1500	1.50626
624.1250	1.50417
624.1000	1.50481
624.0750	1.50788
624.0500	1.50441
624.0250	1.50282
624.0000	1.50107
623.9750	1.49862
623.9500	1.49749
623.9250	1.49519
623.9000	1.49734
623.8750	1.50116
623.8500	1.50411
623.8250	1.50448
623.8000	1.50599
623.7750	1.50672
623.7500	1.50834
623.7250	1.50952
623.7000	1.50853
623.6750	1.50743
623.6500	1.5088
623.6250	1.50751
623.6000	1.51002
623.5750	1.50753
623.5500	1.50788
623.5250	1.51027
623.5000	1.50992
623.4750	1.50752
623.4500	1.5087
623.4250	1.50785
623.4000	1.50803
623.3750	1.50436
623.3500	1.50579
623.3250	1.5079
623.3000	1.51165
623.2750	1.51307
623.2500	1.51387
623.2250	1.51422
623.2000	1.50942
623.1750	1.50817
623.1500	1.50666
623.1250	1.50388
623.1000	1.50435
623.0750	1.50362
623.0500	1.50524
623.0250	1.51079
623.0000	1.51199
622.9750	1.51119
622.9500	1.50731
622.9250	1.50708
622.9000	1.50898
622.8750	1.5101
622.8500	1.51103
622.8250	1.51039
622.8000	1.51294
622.7750	1.51764
622.7500	1.51658
622.7250	1.51444
622.7000	1.51358
622.6750	1.51051
622.6500	1.5113
622.6250	1.50655
622.6000	1.50159
622.5750	1.50369
622.5500	1.50355
622.5250	1.50635
622.5000	1.50754
622.4750	1.51057
622.4500	1.51191
622.4250	1.51196
622.4000	1.51249
622.3750	1.51372
622.3500	1.51045
622.3250	1.51225
622.3000	1.51016
622.2750	1.51042
622.2500	1.50785
622.2250	1.50493
622.2000	1.50577
622.1750	1.5071
622.1500	1.50605
622.1250	1.5062
622.1000	1.50857
622.0750	1.50918
622.0500	1.51169
622.0250	1.50903
622.0000	1.50994
621.9750	1.51031
621.9500	1.50989
621.9250	1.51054
621.9000	1.50803
621.8750	1.50953
621.8500	1.50925
621.8250	1.50739
621.8000	1.50504
621.7750	1.50461
621.7500	1.50739
621.7250	1.50835
621.7000	1.50808
621.6750	1.51168
621.6500	1.5125
621.6250	1.51194
621.6000	1.51096
621.5750	1.50876
621.5500	1.5099
621.5250	1.50932
621.5000	1.51066
621.4750	1.51121
621.4500	1.51229
621.4250	1.51424
621.4000	1.51074
621.3750	1.50707
621.3500	1.50255
621.3250	1.50322
621.3000	1.50457
621.2750	1.50549
621.2500	1.50825
621.2250	1.51127
621.2000	1.51413
621.1750	1.51766
621.1500	1.5167
621.1250	1.51748
621.1000	1.52147
621.0750	1.52124
621.0500	1.52094
621.0250	1.51897
621.0000	1.51872
620.9750	1.5172
620.9500	1.51799
620.9250	1.51489
620.9000	1.51354
620.8750	1.51533
620.8500	1.51435
620.8250	1.51584
620.8000	1.5105
620.7750	1.51011
620.7500	1.51188
620.7250	1.50901
620.7000	1.50682
620.6750	1.50799
620.6500	1.50766
620.6250	1.50586
620.6000	1.50871
620.5750	1.50649
620.5500	1.5096
620.5250	1.50743
620.5000	1.50417
620.4750	1.50856
620.4500	1.51025
620.4250	1.51011
620.4000	1.50946
620.3750	1.51226
620.3500	1.51715
620.3250	1.51274
620.3000	1.5109
620.2750	1.50879
620.2500	1.50669
620.2250	1.50641
620.2000	1.50176
620.1750	1.50441
620.1500	1.5042
620.1250	1.50194
620.1000	1.50369
620.0750	1.50286
620.0500	1.50451
620.0250	1.50266
620.0000	1.50699
619.9750	1.50976
619.9500	1.51025
619.9250	1.51071
619.9000	1.5087
619.8750	1.50832
619.8500	1.50867
619.8250	1.50924
619.8000	1.50771
619.7750	1.50995
619.7500	1.50966
619.7250	1.50908
619.7000	1.51081
619.6750	1.50678
619.6500	1.50829
619.6250	1.50677
619.6000	1.50847
619.5750	1.50753
619.5500	1.5077
619.5250	1.51044
619.5000	1.51269
619.4750	1.51523
619.4500	1.51506
619.4250	1.51012
619.4000	1.50649
619.3750	1.50935
619.3500	1.50698
619.3250	1.50383
619.3000	1.50152
619.2750	1.50233
619.2500	1.50464
619.2250	1.50544
619.2000	1.50821
619.1750	1.50624
619.1500	1.5075
619.1250	1.51023
619.1000	1.50996
619.0750	1.51081
619.0500	1.51104
619.0250	1.50984
619.0000	1.51046
618.9750	1.50911
618.9500	1.50785
618.9250	1.50908
618.9000	1.51118
618.8750	1.51083
618.8500	1.50758
618.8250	1.50492
618.8000	1.50638
618.7750	1.5053
618.7500	1.50445
618.7250	1.50477
618.7000	1.5032
618.6750	1.50962
618.6500	1.5112
618.6250	1.51426
618.6000	1.51462
618.5750	1.51613
618.5500	1.51834
618.5250	1.51979
618.5000	1.51375
618.4750	1.51037
618.4500	1.50776
618.4250	1.50621
618.4000	1.5049
618.3750	1.50418
618.3500	1.50462
618.3250	1.50398
618.3000	1.50325
618.2750	1.50346
618.2500	1.50138
618.2250	1.50207
618.2000	1.50187
618.1750	1.5024
618.1500	1.50587
618.1250	1.50563
618.1000	1.5035
618.0750	1.50257
618.0500	1.50267
618.0250	1.50378
618.0000	1.50004
617.9750	1.49926
617.9500	1.49821
617.9250	1.49732
617.9000	1.49712
617.8750	1.49592
617.8500	1.49793
617.8250	1.49986
617.8000	1.49851
617.7750	1.50411
617.7500	1.50309
617.7250	1.50295
617.7000	1.50122
617.6750	1.50238
617.6500	1.50376
617.6250	1.5029
617.6000	1.50435
617.5750	1.50431
617.5500	1.50783
617.5250	1.50602
617.5000	1.50447
617.4750	1.50153
617.4500	1.50219
617.4250	1.50071
617.4000	1.49812
617.3750	1.4973
617.3500	1.49852
617.3250	1.49749
617.3000	1.49658
617.2750	1.49874
617.2500	1.50254
617.2250	1.50068
617.2000	1.50093
617.1750	1.50301
617.1500	1.50412
617.1250	1.5048
617.1000	1.50356
617.0750	1.50511
617.0500	1.50275
617.0250	1.50213
617.0000	1.50107
616.9750	1.49878
616.9500	1.49548
616.9250	1.4945
616.9000	1.49496
616.8750	1.49284
616.8500	1.49537
616.8250	1.49578
616.8000	1.49597
616.7750	1.49751
616.7500	1.49885
616.7250	1.49806
616.7000	1.4974
616.6750	1.49669
616.6500	1.49459
616.6250	1.49523
616.6000	1.49188
616.5750	1.49282
616.5500	1.49255
616.5250	1.49294
616.5000	1.49599
616.4750	1.49925
616.4500	1.4974
616.4250	1.49851
616.4000	1.49863
616.3750	1.50003
616.3500	1.50052
616.3250	1.4939
616.3000	1.49309
616.2750	1.49293
616.2500	1.49272
616.2250	1.4923
616.2000	1.49105
616.1750	1.49442
616.1500	1.49836
616.1250	1.49807
616.1000	1.49918
616.0750	1.50022
616.0500	1.50285
616.0250	1.50308
616.0000	1.50456
615.9750	1.50356
615.9500	1.50135
615.9250	1.4963
615.9000	1.49224
615.8750	1.48984
615.8500	1.48506
615.8250	1.48316
615.8000	1.48412
615.7750	1.485
615.7500	1.48675
615.7250	1.48782
615.7000	1.48602
615.6750	1.48499
615.6500	1.48318
615.6250	1.48302
615.6000	1.48478
615.5750	1.48335
615.5500	1.4911
615.5250	1.49546
615.5000	1.49178
615.4750	1.49275
615.4500	1.4913
615.4250	1.49362
615.4000	1.48939
615.3750	1.48753
615.3500	1.48812
615.3250	1.48877
615.3000	1.48818
615.2750	1.48608
615.2500	1.48668
615.2250	1.48862
615.2000	1.49046
615.1750	1.49551
615.1500	1.49392
615.1250	1.49351
615.1000	1.49463
615.0750	1.49538
615.0500	1.49203
615.0250	1.48854
615.0000	1.48799
614.9750	1.48679
614.9500	1.48696
614.9250	1.48609
614.9000	1.48826
614.8750	1.49056
614.8500	1.49121
614.8250	1.49246
614.8000	1.4962
614.7750	1.49736
614.7500	1.49258
614.7250	1.49395
614.7000	1.4944
614.6750	1.49385
614.6500	1.49245
614.6250	1.48979
614.6000	1.49428
614.5750	1.49696
614.5500	1.49528
614.5250	1.49254
614.5000	1.49035
614.4750	1.49098
614.4500	1.48992
614.4250	1.48779
614.4000	1.48942
614.3750	1.49066
614.3500	1.49259
614.3250	1.49254
614.3000	1.49252
614.2750	1.49385
614.2500	1.49159
614.2250	1.49108
614.2000	1.49274
614.1750	1.49261
614.1500	1.49154
614.1250	1.48943
614.1000	1.48947
614.0750	1.49381
614.0500	1.49163
614.0250	1.49102
614.0000	1.49158
613.9750	1.4908
613.9500	1.49186
613.9250	1.49197
613.9000	1.49427
613.8750	1.49472
613.8500	1.49842
613.8250	1.49744
613.8000	1.49842
613.7750	1.49598
613.7500	1.49383
613.7250	1.49127
613.7000	1.48903
613.6750	1.48753
613.6500	1.48802
613.6250	1.4893
613.6000	1.49067
613.5750	1.49099
613.5500	1.49493
613.5250	1.49205
613.5000	1.49422
613.4750	1.49254
613.4500	1.49148
613.4250	1.48927
613.4000	1.48788
613.3750	1.48671
613.3500	1.4845
613.3250	1.48502
613.3000	1.483
613.2750	1.48414
613.2500	1.4853
613.2250	1.48742
613.2000	1.49052
613.1750	1.49079
613.1500	1.49102
613.1250	1.49282
613.1000	1.49113
613.0750	1.49087
613.0500	1.48944
613.0250	1.49007
613.0000	1.49173
612.9750	1.4876
612.9500	1.48841
612.9250	1.49165
612.9000	1.49225
612.8750	1.48895
612.8500	1.48815
612.8250	1.48818
612.8000	1.48739
612.7750	1.4876
612.7500	1.4836
612.7250	1.48633
612.7000	1.48653
612.6750	1.48743
612.6500	1.48856
612.6250	1.49042
612.6000	1.49229
612.5750	1.49365
612.5500	1.49127
612.5250	1.49296
612.5000	1.48929
612.4750	1.48666
612.4500	1.48777
612.4250	1.48495
612.4000	1.48833
612.3750	1.48863
612.3500	1.4879
612.3250	1.48817
612.3000	1.49066
612.2750	1.49197
612.2500	1.4904
612.2250	1.49148
612.2000	1.49379
612.1750	1.49281
612.1500	1.49215
612.1250	1.49036
612.1000	1.48891
612.0750	1.48754
612.0500	1.48795
612.0250	1.48473
612.0000	1.48555
611.9750	1.48564
611.9500	1.48744
611.9250	1.48568
611.9000	1.48562
611.8750	1.4877
611.8500	1.48806
611.8250	1.48625
611.8000	1.48683
611.7750	1.48783
611.7500	1.48561
611.7250	1.48507
611.7000	1.48716
611.6750	1.48371
611.6500	1.48261
611.6250	1.48301
611.6000	1.47985
611.5750	1.47964
611.5500	1.47877
611.5250	1.47878
611.5000	1.48152
611.4750	1.48266
611.4500	1.48159
611.4250	1.48173
611.4000	1.48283
611.3750	1.48566
611.3500	1.48945
611.3250	1.48867
611.3000	1.48997
611.2750	1.49008
611.2500	1.49141
611.2250	1.48941
611.2000	1.48719
611.1750	1.48663
611.1500	1.48692
611.1250	1.48177
611.1000	1.48186
611.0750	1.48357
611.0500	1.48427
611.0250	1.48243
611.0000	1.48382
610.9750	1.48575
610.9500	1.4853
610.9250	1.4856
610.9000	1.48901
610.8750	1.48796
610.8500	1.48903
610.8250	1.48895
610.8000	1.49039
610.7750	1.49363
610.7500	1.49206
610.7250	1.4921
610.7000	1.49259
610.6750	1.4974
610.6500	1.49494
610.6250	1.49904
610.6000	1.5031
610.5750	1.50456
610.5500	1.50695
610.5250	1.50363
610.5000	1.50197
610.4750	1.4998
610.4500	1.49588
610.4250	1.49359
610.4000	1.48936
610.3750	1.48884
610.3500	1.48735
610.3250	1.48797
610.3000	1.48785
610.2750	1.48837
610.2500	1.48784
610.2250	1.48777
610.2000	1.49015
610.1750	1.49156
610.1500	1.49271
610.1250	1.49385
610.1000	1.49441
610.0750	1.49572
610.0500	1.4987
610.0250	1.49567
610.0000	1.49385
609.9750	1.49283
609.9500	1.49309
609.9250	1.49257
609.9000	1.49053
609.8750	1.49481
609.8500	1.49513
609.8250	1.49444
609.8000	1.49397
609.7750	1.4951
609.7500	1.49373
609.7250	1.4909
609.7000	1.48828
609.6750	1.48657
609.6500	1.49126
609.6250	1.48486
609.6000	1.48666
609.5750	1.4867
609.5500	1.48962
609.5250	1.49028
609.5000	1.48597
609.4750	1.48617
609.4500	1.4885
609.4250	1.48958
609.4000	1.49208
609.3750	1.49202
609.3500	1.49494
609.3250	1.49651
609.3000	1.49506
609.2750	1.49251
609.2500	1.48945
609.2250	1.48646
609.2000	1.48593
609.1750	1.48511
609.1500	1.48509
609.1250	1.48521
609.1000	1.48702
609.0750	1.49082
609.0500	1.49198
609.0250	1.49364
609.0000	1.49457
608.9750	1.49709
608.9500	1.49637
608.9250	1.49704
608.9000	1.49679
608.8750	1.49626
608.8500	1.4945
608.8250	1.49227
608.8000	1.49311
608.7750	1.4934
608.7500	1.49223
608.7250	1.49107
608.7000	1.49387
608.6750	1.49345
608.6500	1.4954
608.6250	1.49325
608.6000	1.49065
608.5750	1.48851
608.5500	1.48602
608.5250	1.48483
608.5000	1.48589
608.4750	1.48427
608.4500	1.48317
608.4250	1.48564
608.4000	1.48822
608.3750	1.48965
608.3500	1.48766
608.3250	1.48648
608.3000	1.48933
608.2750	1.49038
608.2500	1.48992
608.2250	1.48679
608.2000	1.48591
608.1750	1.48747
608.1500	1.48618
608.1250	1.48442
608.1000	1.48299
608.0750	1.48343
608.0500	1.48316
608.0250	1.48332
608.0000	1.48041
607.9750	1.48452
607.9500	1.48577
607.9250	1.48326
607.9000	1.48327
607.8750	1.48143
607.8500	1.4849
607.8250	1.48425
607.8000	1.48332
607.7750	1.4836
607.7500	1.48411
607.7250	1.48385
607.7000	1.48125
607.6750	1.48017
607.6500	1.48174
607.6250	1.48109
607.6000	1.48182
607.5750	1.4828
607.5500	1.48311
607.5250	1.48093
607.5000	1.48464
607.4750	1.48459
607.4500	1.48318
607.4250	1.48349
607.4000	1.48364
607.3750	1.48445
607.3500	1.48765
607.3250	1.48429
607.3000	1.48348
607.2750	1.48312
607.2500	1.48471
607.2250	1.48434
607.2000	1.48596
607.1750	1.48737
607.1500	1.48498
607.1250	1.48573
607.1000	1.48793
607.0750	1.48985
607.0500	1.48908
607.0250	1.49123
607.0000	1.49347
606.9750	1.49535
606.9500	1.49365
606.9250	1.49315
606.9000	1.49453
606.8750	1.49422
606.8500	1.49157
606.8250	1.48866
606.8000	1.48765
606.7750	1.48748
606.7500	1.48675
606.7250	1.48594
606.7000	1.4868
606.6750	1.48613
606.6500	1.48709
606.6250	1.48825
606.6000	1.48707
606.5750	1.48582
606.5500	1.48687
606.5250	1.48832
606.5000	1.48956
606.4750	1.48716
606.4500	1.48675
606.4250	1.48608
606.4000	1.48611
606.3750	1.48564
606.3500	1.48373
606.3250	1.48485
606.3000	1.48747
606.2750	1.48462
606.2500	1.48441
606.2250	1.48587
606.2000	1.48396
606.1750	1.4819
606.1500	1.47915
606.1250	1.4801
606.1000	1.4812
606.0750	1.47856
606.0500	1.47783
606.0250	1.47691
606.0000	1.47788
605.9750	1.47942
605.9500	1.47966
605.9250	1.48183
605.9000	1.48278
605.8750	1.48721
605.8500	1.48926
605.8250	1.4881
605.8000	1.48843
605.7750	1.48785
605.7500	1.48751
605.7250	1.48684
605.7000	1.48373
605.6750	1.48345
605.6500	1.48614
605.6250	1.48831
605.6000	1.48717
605.5750	1.48711
605.5500	1.48765
605.5250	1.48779
605.5000	1.48867
605.4750	1.48672
605.4500	1.48704
605.4250	1.48242
605.4000	1.48452
605.3750	1.48335
605.3500	1.48204
605.3250	1.48034
605.3000	1.47887
605.2750	1.48127
605.2500	1.48268
605.2250	1.48089
605.2000	1.48089
605.1750	1.47961
605.1500	1.48044
605.1250	1.47907
605.1000	1.47777
605.0750	1.47732
605.0500	1.47556
605.0250	1.47263
605.0000	1.47411
604.9750	1.47499
604.9500	1.47162
604.9250	1.47657
604.9000	1.47699
604.8750	1.48151
604.8500	1.48151
604.8250	1.4795
604.8000	1.47533
604.7750	1.47351
604.7500	1.47425
604.7250	1.47299
604.7000	1.47013
604.6750	1.47072
604.6500	1.47319
604.6250	1.4751
604.6000	1.47135
604.5750	1.4694
604.5500	1.4713
604.5250	1.47157
604.5000	1.4721
604.4750	1.47157
604.4500	1.47225
604.4250	1.47247
604.4000	1.47055
604.3750	1.47255
604.3500	1.46985
604.3250	1.47036
604.3000	1.47131
604.2750	1.46827
604.2500	1.47122
604.2250	1.47301
604.2000	1.47074
604.1750	1.47267
604.1500	1.47374
604.1250	1.4746
604.1000	1.4739
604.0750	1.47338
604.0500	1.47366
604.0250	1.47452
604.0000	1.47053
603.9750	1.46747
603.9500	1.47057
603.9250	1.46778
603.9000	1.46761
603.8750	1.46537
603.8500	1.4648
603.8250	1.46847
603.8000	1.47103
603.7750	1.46902
603.7500	1.47051
603.7250	1.47216
603.7000	1.47135
603.6750	1.47235
603.6500	1.46918
603.6250	1.46729
603.6000	1.46721
603.5750	1.46723
603.5500	1.46463
603.5250	1.46376
603.5000	1.4645
603.4750	1.46527
603.4500	1.46383
603.4250	1.4646
603.4000	1.46657
603.3750	1.46588
603.3500	1.46835
603.3250	1.46748
603.3000	1.4707
603.2750	1.47101
603.2500	1.47031
603.2250	1.47176
603.2000	1.47425
603.1750	1.47564
603.1500	1.47557
603.1250	1.47673
603.1000	1.47993
603.0750	1.47969
603.0500	1.48121
603.0250	1.47974
603.0000	1.47936
602.9750	1.47813
602.9500	1.47709
602.9250	1.47874
602.9000	1.47678
602.8750	1.47552
602.8500	1.47627
602.8250	1.47776
602.8000	1.48003
602.7750	1.48112
602.7500	1.48113
602.7250	1.47994
602.7000	1.47936
602.6750	1.48152
602.6500	1.48045
602.6250	1.47889
602.6000	1.47799
602.5750	1.47728
602.5500	1.47698
602.5250	1.47603
602.5000	1.47393
602.4750	1.47332
602.4500	1.47184
602.4250	1.47147
602.4000	1.47353
602.3750	1.47498
602.3500	1.47649
602.3250	1.47981
602.3000	1.47692
602.2750	1.47758
602.2500	1.47828
602.2250	1.47971
602.2000	1.4797
602.1750	1.47847
602.1500	1.47995
602.1250	1.48054
602.1000	1.4787
602.0750	1.47497
602.0500	1.47564
602.0250	1.47481
602.0000	1.47635
601.9750	1.47814
601.9500	1.47489
601.9250	1.47309
601.9000	1.47258
601.8750	1.47086
601.8500	1.46758
601.8250	1.46594
601.8000	1.46474
601.7750	1.46632
601.7500	1.46781
601.7250	1.4683
601.7000	1.46759
601.6750	1.46894
601.6500	1.46924
601.6250	1.46992
601.6000	1.47166
601.5750	1.47079
601.5500	1.47477
601.5250	1.47581
601.5000	1.47624
601.4750	1.47553
601.4500	1.47297
601.4250	1.47162
601.4000	1.46938
601.3750	1.47099
601.3500	1.47087
601.3250	1.46971
601.3000	1.47122
601.2750	1.47098
601.2500	1.4735
601.2250	1.47362
601.2000	1.47249
601.1750	1.47438
601.1500	1.47425
601.1250	1.47626
601.1000	1.47356
601.0750	1.47258
601.0500	1.47164
601.0250	1.47239
601.0000	1.47365
600.9750	1.46992
600.9500	1.46981
600.9250	1.47327
600.9000	1.47701
600.8750	1.47628
600.8500	1.47393
600.8250	1.4743
600.8000	1.47497
600.7750	1.47343
600.7500	1.47062
600.7250	1.46884
600.7000	1.46626
600.6750	1.46704
600.6500	1.46592
600.6250	1.46662
600.6000	1.46719
600.5750	1.46752
600.5500	1.46956
600.5250	1.46887
600.5000	1.46854
600.4750	1.46783
600.4500	1.4703
600.4250	1.47075
600.4000	1.47051
600.3750	1.474
600.3500	1.47465
600.3250	1.47646
600.3000	1.47399
600.2750	1.47225
600.2500	1.4705
600.2250	1.46859
600.2000	1.46606
600.1750	1.46769
600.1500	1.46909
600.1250	1.46795
600.1000	1.46777
600.0750	1.46913
600.0500	1.46947
600.0250	1.46743
600.0000	1.46304
599.9750	1.46294
599.9500	1.46689
599.9250	1.46413
599.9000	1.46121
599.8750	1.46019
599.8500	1.46124
599.8250	1.46125
599.8000	1.45969
599.7750	1.45869
599.7500	1.46203
599.7250	1.46261
599.7000	1.4608
599.6750	1.46256
599.6500	1.4613
599.6250	1.4595
599.6000	1.46187
599.5750	1.46617
599.5500	1.46657
599.5250	1.469
599.5000	1.46976
599.4750	1.47191
599.4500	1.47193
599.4250	1.4703
599.4000	1.474
599.3750	1.47475
599.3500	1.47819
599.3250	1.48117
599.3000	1.48182
599.2750	1.48491
599.2500	1.48288
599.2250	1.48595
599.2000	1.48036
599.1750	1.48011
599.1500	1.47915
599.1250	1.47713
599.1000	1.47598
599.0750	1.47683
599.0500	1.47911
599.0250	1.47947
599.0000	1.48022
598.9750	1.47873
598.9500	1.48384
598.9250	1.48285
598.9000	1.4808
598.8750	1.48303
598.8500	1.47907
598.8250	1.48237
598.8000	1.48102
598.7750	1.48393
598.7500	1.48487
598.7250	1.4852
598.7000	1.4848
598.6750	1.48536
598.6500	1.4855
598.6250	1.48347
598.6000	1.48126
598.5750	1.48025
598.5500	1.47898
598.5250	1.47958
598.5000	1.48084
598.4750	1.48031
598.4500	1.4797
598.4250	1.47939
598.4000	1.47779
598.3750	1.47822
598.3500	1.47326
598.3250	1.47532
598.3000	1.47372
598.2750	1.47225
598.2500	1.47255
598.2250	1.47359
598.2000	1.47212
598.1750	1.47368
598.1500	1.47279
598.1250	1.47247
598.1000	1.47365
598.0750	1.47462
598.0500	1.47488
598.0250	1.47454
598.0000	1.47386
597.9750	1.47184
597.9500	1.47458
597.9250	1.47538
597.9000	1.47349
597.8750	1.47385
597.8500	1.4757
597.8250	1.47561
597.8000	1.47292
597.7750	1.47212
597.7500	1.47128
597.7250	1.4713
597.7000	1.46862
597.6750	1.46857
597.6500	1.46876
597.6250	1.46969
597.6000	1.46944
597.5750	1.46635
597.5500	1.46673
597.5250	1.46719
597.5000	1.46792
597.4750	1.46676
597.4500	1.46599
597.4250	1.46834
597.4000	1.46924
597.3750	1.4695
597.3500	1.46832
597.3250	1.46872
597.3000	1.46872
597.2750	1.4706
597.2500	1.47205
597.2250	1.47165
597.2000	1.469
597.1750	1.47094
597.1500	1.4703
597.1250	1.46957
597.1000	1.46716
597.0750	1.46835
597.0500	1.46633
597.0250	1.46735
597.0000	1.46547
596.9750	1.46861
596.9500	1.4678
596.9250	1.46842
596.9000	1.46876
596.8750	1.46979
596.8500	1.46877
596.8250	1.46767
596.8000	1.46575
596.7750	1.46561
596.7500	1.46631
596.7250	1.46316
596.7000	1.46414
596.6750	1.46479
596.6500	1.46359
596.6250	1.46271
596.6000	1.46213
596.5750	1.45982
596.5500	1.45776
596.5250	1.45652
596.5000	1.45633
596.4750	1.45501
596.4500	1.4554
596.4250	1.45535
596.4000	1.4539
596.3750	1.45308
596.3500	1.4556
596.3250	1.4523
596.3000	1.45381
596.2750	1.45554
596.2500	1.4584
596.2250	1.45844
596.2000	1.45769
596.1750	1.45938
596.1500	1.46076
596.1250	1.4591
596.1000	1.45631
596.0750	1.45335
596.0500	1.45359
596.0250	1.45361
596.0000	1.45477
595.9750	1.45563
595.9500	1.4504
595.9250	1.45528
595.9000	1.45623
595.8750	1.45495
595.8500	1.45261
595.8250	1.45285
595.8000	1.45351
595.7750	1.45099
595.7500	1.45164
595.7250	1.45359
595.7000	1.45405
595.6750	1.45381
595.6500	1.45465
595.6250	1.45859
595.6000	1.46187
595.5750	1.46089
595.5500	1.46252
595.5250	1.4655
595.5000	1.46654
595.4750	1.46596
595.4500	1.46815
595.4250	1.47177
595.4000	1.47215
595.3750	1.47151
595.3500	1.4739
595.3250	1.47417
595.3000	1.47312
595.2750	1.47033
595.2500	1.46642
595.2250	1.46739
595.2000	1.46901
595.1750	1.46886
595.1500	1.46773
595.1250	1.46982
595.1000	1.47578
595.0750	1.47501
595.0500	1.4729
595.0250	1.4744
595.0000	1.47113
594.9750	1.47128
594.9500	1.46651
594.9250	1.46731
594.9000	1.46698
594.8750	1.46343
594.8500	1.46322
594.8250	1.46252
594.8000	1.46135
594.7750	1.46314
594.7500	1.46233
594.7250	1.46542
594.7000	1.46481
594.6750	1.4628
594.6500	1.46368
594.6250	1.46431
594.6000	1.46486
594.5750	1.46025
594.5500	1.45586
594.5250	1.45604
594.5000	1.45893
594.4750	1.45951
594.4500	1.457
594.4250	1.46095
594.4000	1.46038
594.3750	1.46111
594.3500	1.46094
594.3250	1.46175
594.3000	1.46058
594.2750	1.46012
594.2500	1.46415
594.2250	1.46535
594.2000	1.46558
594.1750	1.46306
594.1500	1.46306
594.1250	1.46337
594.1000	1.46159
594.0750	1.46046
594.0500	1.4625
594.0250	1.46221
594.0000	1.46149
593.9750	1.45993
593.9500	1.4616
593.9250	1.4583
593.9000	1.45459
593.8750	1.45077
593.8500	1.45011
593.8250	1.45225
593.8000	1.45083
593.7750	1.45334
593.7500	1.45201
593.7250	1.45468
593.7000	1.4523
593.6750	1.45124
593.6500	1.45094
593.6250	1.44937
593.6000	1.44903
593.5750	1.45094
593.5500	1.45094
593.5250	1.45038
593.5000	1.45126
593.4750	1.45079
593.4500	1.44912
593.4250	1.45009
593.4000	1.44918
593.3750	1.44866
593.3500	1.44628
593.3250	1.44893
593.3000	1.45025
593.2750	1.44949
593.2500	1.44782
593.2250	1.45287
593.2000	1.45293
593.1750	1.45164
593.1500	1.45
593.1250	1.44898
593.1000	1.4484
593.0750	1.44697
593.0500	1.44706
593.0250	1.44897
593.0000	1.45131
592.9750	1.45263
592.9500	1.45076
592.9250	1.45119
592.9000	1.4516
592.8750	1.44662
592.8500	1.44687
592.8250	1.44418
592.8000	1.44686
592.7750	1.4493
592.7500	1.44881
592.7250	1.44711
592.7000	1.44607
592.6750	1.44706
592.6500	1.44485
592.6250	1.44482
592.6000	1.44093
592.5750	1.44577
592.5500	1.4471
592.5250	1.44669
592.5000	1.44936
592.4750	1.44696
592.4500	1.44582
592.4250	1.44373
592.4000	1.43871
592.3750	1.43817
592.3500	1.43769
592.3250	1.44016
592.3000	1.44033
592.2750	1.44477
592.2500	1.44429
592.2250	1.44536
592.2000	1.44429
592.1750	1.44287
592.1500	1.44094
592.1250	1.43878
592.1000	1.43725
592.0750	1.43856
592.0500	1.43909
592.0250	1.44193
592.0000	1.44259
591.9750	1.4409
591.9500	1.44061
591.9250	1.44084
591.9000	1.43984
591.8750	1.44066
591.8500	1.44416
591.8250	1.45088
591.8000	1.45438
591.7750	1.45702
591.7500	1.4584
591.7250	1.46072
591.7000	1.4595
591.6750	1.46088
591.6500	1.45763
591.6250	1.45916
591.6000	1.46173
591.5750	1.46226
591.5500	1.46174
591.5250	1.45662
591.5000	1.45984
591.4750	1.45856
591.4500	1.4563
591.4250	1.45446
591.4000	1.45455
591.3750	1.4579
591.3500	1.45711
591.3250	1.45691
591.3000	1.45849
591.2750	1.45833
591.2500	1.45888
591.2250	1.45853
591.2000	1.45714
591.1750	1.45845
591.1500	1.45485
591.1250	1.45421
591.1000	1.45656
591.0750	1.45379
591.0500	1.45773
591.0250	1.45948
591.0000	1.45914
590.9750	1.46237
590.9500	1.46049
590.9250	1.46365
590.9000	1.46078
590.8750	1.45935
590.8500	1.45768
590.8250	1.4561
590.8000	1.45661
590.7750	1.45448
590.7500	1.45588
590.7250	1.45618
590.7000	1.4572
590.6750	1.45659
590.6500	1.4584
590.6250	1.45868
590.6000	1.45843
590.5750	1.45735
590.5500	1.45759
590.5250	1.45525
590.5000	1.45348
590.4750	1.45301
590.4500	1.45318
590.4250	1.45238
590.4000	1.45112
590.3750	1.45029
590.3500	1.4501
590.3250	1.44938
590.3000	1.45087
590.2750	1.44972
590.2500	1.45011
590.2250	1.44957
590.2000	1.45056
590.1750	1.45024
590.1500	1.45142
590.1250	1.45055
590.1000	1.45016
590.0750	1.4507
590.0500	1.45315
590.0250	1.45272
590.0000	1.45836
589.9750	1.45725
589.9500	1.45912
589.9250	1.456
589.9000	1.45635
589.8750	1.45648
589.8500	1.45308
589.8250	1.45226
589.8000	1.45065
589.7750	1.45051
589.7500	1.45114
589.7250	1.44944
589.7000	1.4503
589.6750	1.44986
589.6500	1.44815
589.6250	1.44879
589.6000	1.44674
589.5750	1.44581
589.5500	1.446
589.5250	1.44707
589.5000	1.44833
589.4750	1.4505
589.4500	1.45135
589.4250	1.45225
589.4000	1.44991
589.3750	1.45095
589.3500	1.44989
589.3250	1.44612
589.3000	1.44778
589.2750	1.44857
589.2500	1.44795
589.2250	1.44726
589.2000	1.44482
589.1750	1.44584
589.1500	1.44525
589.1250	1.44406
589.1000	1.44592
589.0750	1.44749
589.0500	1.44788
589.0250	1.44951
589.0000	1.44784
588.9750	1.44761
588.9500	1.44855
588.9250	1.44768
588.9000	1.44675
588.8750	1.44344
588.8500	1.44184
588.8250	1.44217
588.8000	1.43948
588.7750	1.43749
588.7500	1.43563
588.7250	1.43812
588.7000	1.43593
588.6750	1.43519
588.6500	1.43691
588.6250	1.43493
588.6000	1.43799
588.5750	1.43899
588.5500	1.44023
588.5250	1.44502
588.5000	1.44621
588.4750	1.44506
588.4500	1.44647
588.4250	1.44463
588.4000	1.44661
588.3750	1.4466
588.3500	1.44483
588.3250	1.44547
588.3000	1.4459
588.2750	1.44446
588.2500	1.4477
588.2250	1.44733
588.2000	1.45061
588.1750	1.45275
588.1500	1.45682
588.1250	1.46087
588.1000	1.46254
588.0750	1.46408
588.0500	1.46437
588.0250	1.46407
588.0000	1.46375
587.9750	1.4617
587.9500	1.4605
587.9250	1.4604
587.9000	1.45609
587.8750	1.45681
587.8500	1.45796
587.8250	1.45762
587.8000	1.45715
587.7750	1.45885
587.7500	1.45832
587.7250	1.45772
587.7000	1.46
587.6750	1.46202
587.6500	1.4628
587.6250	1.45972
587.6000	1.46229
587.5750	1.46225
587.5500	1.46224
587.5250	1.46048
587.5000	1.45883
587.4750	1.45976
587.4500	1.45841
587.4250	1.4585
587.4000	1.4594
587.3750	1.45572
587.3500	1.45755
587.3250	1.45669
587.3000	1.45501
587.2750	1.45419
587.2500	1.45379
587.2250	1.45427
587.2000	1.45403
587.1750	1.45423
587.1500	1.4519
587.1250	1.45306
587.1000	1.45469
587.0750	1.45545
587.0500	1.4527
587.0250	1.45315
587.0000	1.45267
586.9750	1.4526
586.9500	1.44834
586.9250	1.44669
586.9000	1.44884
586.8750	1.44513
586.8500	1.44817
586.8250	1.44789
586.8000	1.44794
586.7750	1.44943
586.7500	1.44787
586.7250	1.44889
586.7000	1.44739
586.6750	1.44822
586.6500	1.44422
586.6250	1.44592
586.6000	1.44759
586.5750	1.44639
586.5500	1.44931
586.5250	1.45139
586.5000	1.45185
586.4750	1.4516
586.4500	1.44818
586.4250	1.44615
586.4000	1.44491
586.3750	1.44687
586.3500	1.44473
586.3250	1.44691
586.3000	1.44796
586.2750	1.44647
586.2500	1.44372
586.2250	1.44387
586.2000	1.43999
586.1750	1.44043
586.1500	1.44227
586.1250	1.44146
586.1000	1.44416
586.0750	1.44287
586.0500	1.44506
586.0250	1.4442
586.0000	1.44254
585.9750	1.44407
585.9500	1.44322
585.9250	1.44239
585.9000	1.44189
585.8750	1.44259
585.8500	1.44295
585.8250	1.44229
585.8000	1.43794
585.7750	1.43817
585.7500	1.43844
585.7250	1.43511
585.7000	1.4323
585.6750	1.43266
585.6500	1.43164
585.6250	1.43198
585.6000	1.43025
585.5750	1.43042
585.5500	1.43252
585.5250	1.43258
585.5000	1.43174
585.4750	1.42915
585.4500	1.43021
585.4250	1.43036
585.4000	1.4282
585.3750	1.42548
585.3500	1.42298
585.3250	1.42565
585.3000	1.42716
585.2750	1.42775
585.2500	1.42507
585.2250	1.42653
585.2000	1.43051
585.1750	1.43249
585.1500	1.43064
585.1250	1.42901
585.1000	1.4311
585.0750	1.43235
585.0500	1.43178
585.0250	1.43119
585.0000	1.42996
584.9750	1.43329
584.9500	1.43561
584.9250	1.43734
584.9000	1.43566
584.8750	1.4334
584.8500	1.43453
584.8250	1.43429
584.8000	1.429
584.7750	1.43037
584.7500	1.43121
584.7250	1.43395
584.7000	1.43848
584.6750	1.44148
584.6500	1.44318
584.6250	1.44544
584.6000	1.44362
584.5750	1.44462
584.5500	1.44274
584.5250	1.44095
584.5000	1.44091
584.4750	1.43921
584.4500	1.44066
584.4250	1.44306
584.4000	1.44135
584.3750	1.44222
584.3500	1.44341
584.3250	1.44802
584.3000	1.44747
584.2750	1.44736
584.2500	1.44782
584.2250	1.44832
584.2000	1.44651
584.1750	1.44378
584.1500	1.44044
584.1250	1.4433
584.1000	1.4418
584.0750	1.44229
584.0500	1.44569
584.0250	1.45144
584.0000	1.45243
583.9750	1.45462
583.9500	1.45496
583.9250	1.45543
583.9000	1.45313
583.8750	1.44994
583.8500	1.44845
583.8250	1.4429
583.8000	1.44
583.7750	1.44025
583.7500	1.43787
583.7250	1.43786
583.7000	1.43472
583.6750	1.43612
583.6500	1.43855
583.6250	1.44012
583.6000	1.43853
583.5750	1.4407
583.5500	1.44297
583.5250	1.44213
583.5000	1.44399
583.4750	1.44035
583.4500	1.43985
583.4250	1.43943
583.4000	1.43995
583.3750	1.43951
583.3500	1.43687
583.3250	1.43491
583.3000	1.43492
583.2750	1.43711
583.2500	1.4387
583.2250	1.43859
583.2000	1.43677
583.1750	1.43866
583.1500	1.43884
583.1250	1.43732
583.1000	1.43795
583.0750	1.43671
583.0500	1.43511
583.0250	1.43644
583.0000	1.43521
582.9750	1.43496
582.9500	1.43306
582.9250	1.43152
582.9000	1.43252
582.8750	1.43075
582.8500	1.43149
582.8250	1.43289
582.8000	1.43294
582.7750	1.43338
582.7500	1.43227
582.7250	1.43516
582.7000	1.43418
582.6750	1.43467
582.6500	1.43361
582.6250	1.4334
582.6000	1.4306
582.5750	1.4282
582.5500	1.42701
582.5250	1.42378
582.5000	1.42489
582.4750	1.42449
582.4500	1.42605
582.4250	1.4244
582.4000	1.4248
582.3750	1.4252
582.3500	1.42413
582.3250	1.42335
582.3000	1.423
582.2750	1.42254
582.2500	1.42283
582.2250	1.42208
582.2000	1.42348
582.1750	1.42419
582.1500	1.42504
582.1250	1.42247
582.1000	1.42196
582.0750	1.42279
582.0500	1.42234
582.0250	1.42319
582.0000	1.42076
581.9750	1.41951
581.9500	1.42047
581.9250	1.42177
581.9000	1.41926
581.8750	1.41889
581.8500	1.41731
581.8250	1.42037
581.8000	1.41731
581.7750	1.41945
581.7500	1.42255
581.7250	1.42622
581.7000	1.42881
581.6750	1.42751
581.6500	1.43055
581.6250	1.4312
581.6000	1.42819
581.5750	1.42607
581.5500	1.42278
581.5250	1.42382
581.5000	1.4222
581.4750	1.4203
581.4500	1.42096
581.4250	1.42278
581.4000	1.42133
581.3750	1.41757
581.3500	1.4177
581.3250	1.42118
581.3000	1.42209
581.2750	1.42424
581.2500	1.42503
581.2250	1.42814
581.2000	1.43127
581.1750	1.43359
581.1500	1.43609
581.1250	1.43505
581.1000	1.43823
581.0750	1.44066
581.0500	1.44344
581.0250	1.43983
581.0000	1.44079
580.9750	1.43981
580.9500	1.44027
580.9250	1.439
580.9000	1.43736
580.8750	1.43956
580.8500	1.44216
580.8250	1.44644
580.8000	1.44818
580.7750	1.44744
580.7500	1.44832
580.7250	1.44733
580.7000	1.44295
580.6750	1.44201
580.6500	1.44061
580.6250	1.44249
580.6000	1.44381
580.5750	1.44219
580.5500	1.4449
580.5250	1.4435
580.5000	1.44327
580.4750	1.44205
580.4500	1.43901
580.4250	1.4352
580.4000	1.43293
580.3750	1.43337
580.3500	1.43284
580.3250	1.43509
580.3000	1.43667
580.2750	1.4397
580.2500	1.4405
580.2250	1.43942
580.2000	1.43843
580.1750	1.43755
580.1500	1.43624
580.1250	1.43897
580.1000	1.43443
580.0750	1.43511
580.0500	1.43415
580.0250	1.43453
580.0000	1.43432
579.9750	1.43554
579.9500	1.43423
579.9250	1.43639
579.9000	1.43812
579.8750	1.43905
579.8500	1.43863
579.8250	1.43495
579.8000	1.43304
579.7750	1.43344
579.7500	1.42946
579.7250	1.42964
579.7000	1.42596
579.6750	1.43009
579.6500	1.43263
579.6250	1.43567
579.6000	1.43552
579.5750	1.43922
579.5500	1.44186
579.5250	1.4417
579.5000	1.43713
579.4750	1.43534
579.4500	1.43449
579.4250	1.43468
579.4000	1.43064
579.3750	1.42937
579.3500	1.42802
579.3250	1.42908
579.3000	1.4284
579.2750	1.42812
579.2500	1.42703
579.2250	1.42774
579.2000	1.43011
579.1750	1.42814
579.1500	1.42886
579.1250	1.4269
579.1000	1.42596
579.0750	1.42655
579.0500	1.4252
579.0250	1.42715
579.0000	1.42693
578.9750	1.427
578.9500	1.42632
578.9250	1.42652
578.9000	1.4277
578.8750	1.43008
578.8500	1.42877
578.8250	1.42935
578.8000	1.43267
578.7750	1.43206
578.7500	1.43058
578.7250	1.4279
578.7000	1.42396
578.6750	1.42421
578.6500	1.42422
578.6250	1.42479
578.6000	1.42622
578.5750	1.42647
578.5500	1.42759
578.5250	1.42733
578.5000	1.42956
578.4750	1.42856
578.4500	1.42934
578.4250	1.42525
578.4000	1.42741
578.3750	1.42901
578.3500	1.42714
578.3250	1.42806
578.3000	1.42695
578.2750	1.42802
578.2500	1.42557
578.2250	1.42294
578.2000	1.42022
578.1750	1.41919
578.1500	1.41896
578.1250	1.41638
578.1000	1.41722
578.0750	1.41904
578.0500	1.41988
578.0250	1.42005
578.0000	1.42148
577.9750	1.42559
577.9500	1.42728
577.9250	1.42607
577.9000	1.42671
577.8750	1.43042
577.8500	1.43146
577.8250	1.43334
577.8000	1.43353
577.7750	1.43664
577.7500	1.4363
577.7250	1.43923
577.7000	1.43844
577.6750	1.43827
577.6500	1.43528
577.6250	1.43373
577.6000	1.43344
577.5750	1.43208
577.5500	1.42988
577.5250	1.43109
577.5000	1.43223
577.4750	1.43405
577.4500	1.4339
577.4250	1.43714
577.4000	1.4377
577.3750	1.43761
577.3500	1.43728
577.3250	1.4339
577.3000	1.43342
577.2750	1.43436
577.2500	1.43642
577.2250	1.43387
577.2000	1.43362
577.1750	1.43598
577.1500	1.43918
577.1250	1.4402
577.1000	1.43954
577.0750	1.43896
577.0500	1.44247
577.0250	1.43839
577.0000	1.43411
576.9750	1.43367
576.9500	1.43128
576.9250	1.43075
576.9000	1.43058
576.8750	1.43139
576.8500	1.43453
576.8250	1.43358
576.8000	1.43375
576.7750	1.43391
576.7500	1.43435
576.7250	1.43549
576.7000	1.43622
576.6750	1.43422
576.6500	1.43745
576.6250	1.43528
576.6000	1.43377
576.5750	1.4322
576.5500	1.43092
576.5250	1.42979
576.5000	1.42535
576.4750	1.42267
576.4500	1.42403
576.4250	1.42603
576.4000	1.42652
576.3750	1.42704
576.3500	1.43
576.3250	1.43256
576.3000	1.43488
576.2750	1.43122
576.2500	1.42964
576.2250	1.42788
576.2000	1.42617
576.1750	1.42152
576.1500	1.41948
576.1250	1.41884
576.1000	1.41988
576.0750	1.41768
576.0500	1.42083
576.0250	1.42122
576.0000	1.42363
575.9750	1.42542
575.9500	1.42377
575.9250	1.42401
575.9000	1.42552
575.8750	1.42126
575.8500	1.42154
575.8250	1.41789
575.8000	1.41873
575.7750	1.42167
575.7500	1.41949
575.7250	1.41842
575.7000	1.4162
575.6750	1.4148
575.6500	1.41532
575.6250	1.41299
575.6000	1.41148
575.5750	1.4125
575.5500	1.41178
575.5250	1.41355
575.5000	1.41339
575.4750	1.41596
575.4500	1.41613
575.4250	1.41296
575.4000	1.41375
575.3750	1.41335
575.3500	1.40815
575.3250	1.40556
575.3000	1.40721
575.2750	1.40626
575.2500	1.40645
575.2250	1.40757
575.2000	1.40872
575.1750	1.41036
575.1500	1.41044
575.1250	1.41085
575.1000	1.40853
575.0750	1.40556
575.0500	1.4048
575.0250	1.40289
575.0000	1.4045
574.9750	1.40258
574.9500	1.40323
574.9250	1.40337
574.9000	1.40222
574.8750	1.40086
574.8500	1.40151
574.8250	1.40346
574.8000	1.40473
574.7750	1.4036
574.7500	1.40503
574.7250	1.41132
574.7000	1.41305
574.6750	1.41439
574.6500	1.41646
574.6250	1.41996
574.6000	1.41953
574.5750	1.42243
574.5500	1.42469
574.5250	1.42428
574.5000	1.42191
574.4750	1.41734
574.4500	1.41671
574.4250	1.41763
574.4000	1.41655
574.3750	1.41471
574.3500	1.41537
574.3250	1.41849
574.3000	1.42019
574.2750	1.41656
574.2500	1.41777
574.2250	1.4167
574.2000	1.42091
574.1750	1.42093
574.1500	1.42093
574.1250	1.42338
574.1000	1.42248
574.0750	1.42495
574.0500	1.42471
574.0250	1.42476
574.0000	1.42251
573.9750	1.42318
573.9500	1.42225
573.9250	1.42512
573.9000	1.42532
573.8750	1.42082
573.8500	1.42415
573.8250	1.42546
573.8000	1.42327
573.7750	1.42141
573.7500	1.42077
573.7250	1.42149
573.7000	1.42206
573.6750	1.41943
573.6500	1.41635
573.6250	1.41723
573.6000	1.41744
573.5750	1.41495
573.5500	1.41422
573.5250	1.41379
573.5000	1.41514
573.4750	1.4159
573.4500	1.41527
573.4250	1.4145
573.4000	1.41325
573.3750	1.41266
573.3500	1.41367
573.3250	1.41402
573.3000	1.41189
573.2750	1.41418
573.2500	1.41474
573.2250	1.41559
573.2000	1.41465
573.1750	1.41222
573.1500	1.41392
573.1250	1.4143
573.1000	1.41408
573.0750	1.41535
573.0500	1.41413
573.0250	1.41408
573.0000	1.41565
572.9750	1.41297
572.9500	1.41266
572.9250	1.41301
572.9000	1.41064
572.8750	1.41093
572.8500	1.40836
572.8250	1.40802
572.8000	1.4088
572.7750	1.4085
572.7500	1.40931
572.7250	1.41046
572.7000	1.40884
572.6750	1.40764
572.6500	1.40923
572.6250	1.40878
572.6000	1.40953
572.5750	1.40714
572.5500	1.40695
572.5250	1.40511
572.5000	1.40656
572.4750	1.40504
572.4500	1.4047
572.4250	1.40213
572.4000	1.40027
572.3750	1.3975
572.3500	1.3971
572.3250	1.40077
572.3000	1.39834
572.2750	1.40053
572.2500	1.4018
572.2250	1.40254
572.2000	1.40274
572.1750	1.40165
572.1500	1.40062
572.1250	1.40042
572.1000	1.39728
572.0750	1.39652
572.0500	1.39641
572.0250	1.39694
572.0000	1.39903
571.9750	1.39737
571.9500	1.39695
571.9250	1.398
571.9000	1.39688
571.8750	1.39685
571.8500	1.39376
571.8250	1.38982
571.8000	1.39348
571.7750	1.39415
571.7500	1.39839
571.7250	1.39793
571.7000	1.39795
571.6750	1.4033
571.6500	1.40891
571.6250	1.40926
571.6000	1.40983
571.5750	1.41366
571.5500	1.41556
571.5250	1.41648
571.5000	1.41562
571.4750	1.41523
571.4500	1.41462
571.4250	1.41278
571.4000	1.41152
571.3750	1.41158
571.3500	1.41118
571.3250	1.41273
571.3000	1.41103
571.2750	1.41308
571.2500	1.41374
571.2250	1.41178
571.2000	1.41214
571.1750	1.41112
571.1500	1.4098
571.1250	1.40861
571.1000	1.40711
571.0750	1.40814
571.0500	1.40797
571.0250	1.41055
571.0000	1.4133
570.9750	1.414
570.9500	1.4164
570.9250	1.41866
570.9000	1.42069
570.8750	1.41955
570.8500	1.41813
570.8250	1.41835
570.8000	1.41982
570.7750	1.41847
570.7500	1.41986
570.7250	1.42039
570.7000	1.42103
570.6750	1.42214
570.6500	1.42362
570.6250	1.42203
570.6000	1.42225
570.5750	1.42141
570.5500	1.41733
570.5250	1.41882
570.5000	1.41518
570.4750	1.41383
570.4500	1.41109
570.4250	1.40823
570.4000	1.41086
570.3750	1.41031
570.3500	1.41125
570.3250	1.41223
570.3000	1.41422
570.2750	1.41789
570.2500	1.41691
570.2250	1.41667
570.2000	1.41479
570.1750	1.41556
570.1500	1.41836
570.1250	1.41863
570.1000	1.41608
570.0750	1.41711
570.0500	1.41656
570.0250	1.41814
570.0000	1.41518
569.9750	1.4143
569.9500	1.416
569.9250	1.41703
569.9000	1.41587
569.8750	1.41525
569.8500	1.41344
569.8250	1.41335
569.8000	1.40975
569.7750	1.40753
569.7500	1.40805
569.7250	1.40877
569.7000	1.40788
569.6750	1.40631
569.6500	1.40576
569.6250	1.40481
569.6000	1.4033
569.5750	1.40269
569.5500	1.40422
569.5250	1.4046
569.5000	1.40503
569.4750	1.40592
569.4500	1.40971
569.4250	1.40844
569.4000	1.40612
569.3750	1.40715
569.3500	1.40599
569.3250	1.40261
569.3000	1.39975
569.2750	1.39891
569.2500	1.40248
569.2250	1.40028
569.2000	1.39947
569.1750	1.39853
569.1500	1.40013
569.1250	1.39929
569.1000	1.3995
569.0750	1.39706
569.0500	1.39679
569.0250	1.39695
569.0000	1.39662
568.9750	1.39447
568.9500	1.39417
568.9250	1.39426
568.9000	1.39304
568.8750	1.39322
568.8500	1.39127
568.8250	1.39089
568.8000	1.39248
568.7750	1.39185
568.7500	1.39322
568.7250	1.39537
568.7000	1.40001
568.6750	1.4041
568.6500	1.40481
568.6250	1.40648
568.6000	1.40966
568.5750	1.40959
568.5500	1.41124
568.5250	1.41182
568.5000	1.41244
568.4750	1.41094
568.4500	1.41244
568.4250	1.4113
568.4000	1.41064
568.3750	1.40936
568.3500	1.40956
568.3250	1.40914
568.3000	1.4074
568.2750	1.40967
568.2500	1.40768
568.2250	1.40845
568.2000	1.40568
568.1750	1.40548
568.1500	1.40538
568.1250	1.40305
568.1000	1.40175
568.0750	1.4025
568.0500	1.40346
568.0250	1.40327
568.0000	1.40202
567.9750	1.40222
567.9500	1.40293
567.9250	1.40207
567.9000	1.40486
567.8750	1.40462
567.8500	1.40512
567.8250	1.40748
567.8000	1.41061
567.7750	1.41308
567.7500	1.41091
567.7250	1.41686
567.7000	1.41668
567.6750	1.41686
567.6500	1.41507
567.6250	1.41522
567.6000	1.41538
567.5750	1.41595
567.5500	1.41317
567.5250	1.4136
567.5000	1.41427
567.4750	1.41203
567.4500	1.40997
567.4250	1.40759
567.4000	1.40885
567.3750	1.40813
567.3500	1.40747
567.3250	1.40733
567.3000	1.41203
567.2750	1.41064
567.2500	1.41075
567.2250	1.41152
567.2000	1.41506
567.1750	1.41098
567.1500	1.40937
567.1250	1.40731
567.1000	1.40775
567.0750	1.4044
567.0500	1.40197
567.0250	1.40016
567.0000	1.3972
566.9750	1.39827
566.9500	1.39686
566.9250	1.39729
566.9000	1.39551
566.8750	1.39667
566.8500	1.39819
566.8250	1.39949
566.8000	1.3988
566.7750	1.40249
566.7500	1.4004
566.7250	1.40142
566.7000	1.40133
566.6750	1.40278
566.6500	1.40011
566.6250	1.3989
566.6000	1.39641
566.5750	1.39771
566.5500	1.39716
566.5250	1.39475
566.5000	1.39141
566.4750	1.39273
566.4500	1.39125
566.4250	1.38981
566.4000	1.3882
566.3750	1.38605
566.3500	1.39113
566.3250	1.39003
566.3000	1.38855
566.2750	1.38746
566.2500	1.38974
566.2250	1.38958
566.2000	1.39038
566.1750	1.38482
566.1500	1.38264
566.1250	1.38274
566.1000	1.37959
566.0750	1.37623
566.0500	1.37242
566.0250	1.37449
566.0000	1.37474
565.9750	1.37573
565.9500	1.37511
565.9250	1.37759
565.9000	1.37594
565.8750	1.37552
565.8500	1.37311
565.8250	1.37441
565.8000	1.37448
565.7750	1.37579
565.7500	1.37957
565.7250	1.38107
565.7000	1.38473
565.6750	1.38603
565.6500	1.39026
565.6250	1.38984
565.6000	1.39227
565.5750	1.39411
565.5500	1.39408
565.5250	1.39588
565.5000	1.39444
565.4750	1.39537
565.4500	1.39817
565.4250	1.39909
565.4000	1.39615
565.3750	1.39462
565.3500	1.39399
565.3250	1.39399
565.3000	1.39101
565.2750	1.39126
565.2500	1.39154
565.2250	1.39099
565.2000	1.39195
565.1750	1.39239
565.1500	1.39334
565.1250	1.39197
565.1000	1.38965
565.0750	1.38827
565.0500	1.38744
565.0250	1.38654
565.0000	1.38423
564.9750	1.38512
564.9500	1.38536
564.9250	1.38742
564.9000	1.38743
564.8750	1.38568
564.8500	1.38657
564.8250	1.38843
564.8000	1.38915
564.7750	1.3881
564.7500	1.38794
564.7250	1.39068
564.7000	1.39217
564.6750	1.39217
564.6500	1.3939
564.6250	1.39632
564.6000	1.39816
564.5750	1.39762
564.5500	1.39795
564.5250	1.39757
564.5000	1.39652
564.4750	1.39435
564.4500	1.39765
564.4250	1.39678
564.4000	1.39603
564.3750	1.39778
564.3500	1.39775
564.3250	1.39322
564.3000	1.39188
564.2750	1.39051
564.2500	1.39034
564.2250	1.39122
564.2000	1.3931
564.1750	1.39308
564.1500	1.39463
564.1250	1.39164
564.1000	1.39054
564.0750	1.39128
564.0500	1.38819
564.0250	1.38999
564.0000	1.38808
563.9750	1.38849
563.9500	1.38826
563.9250	1.38943
563.9000	1.3886
563.8750	1.38792
563.8500	1.38646
563.8250	1.38926
563.8000	1.38708
563.7750	1.38726
563.7500	1.38709
563.7250	1.38804
563.7000	1.38512
563.6750	1.3871
563.6500	1.38736
563.6250	1.38528
563.6000	1.3837
563.5750	1.38247
563.5500	1.38466
563.5250	1.38175
563.5000	1.37962
563.4750	1.38203
563.4500	1.38125
563.4250	1.37952
563.4000	1.37832
563.3750	1.37728
563.3500	1.37648
563.3250	1.37795
563.3000	1.37835
563.2750	1.37729
563.2500	1.37875
563.2250	1.37851
563.2000	1.37753
563.1750	1.37446
563.1500	1.37357
563.1250	1.37321
563.1000	1.37184
563.0750	1.37144
563.0500	1.37093
563.0250	1.37135
563.0000	1.37104
562.9750	1.37267
562.9500	1.37426
562.9250	1.3747
562.9000	1.37882
562.8750	1.38214
562.8500	1.38301
562.8250	1.38592
562.8000	1.38652
562.7750	1.39009
562.7500	1.39152
562.7250	1.38969
562.7000	1.39094
562.6750	1.39042
562.6500	1.38842
562.6250	1.38711
562.6000	1.3881
562.5750	1.38617
562.5500	1.38575
562.5250	1.38575
562.5000	1.38461
562.4750	1.3867
562.4500	1.38522
562.4250	1.38717
562.4000	1.38656
562.3750	1.38974
562.3500	1.38746
562.3250	1.38429
562.3000	1.38368
562.2750	1.38597
562.2500	1.38552
562.2250	1.38432
562.2000	1.3866
562.1750	1.38714
562.1500	1.38554
562.1250	1.38905
562.1000	1.38761
562.0750	1.38692
562.0500	1.38609
562.0250	1.38481
562.0000	1.38665
561.9750	1.38976
561.9500	1.38728
561.9250	1.38874
561.9000	1.3901
561.8750	1.39249
561.8500	1.39396
561.8250	1.39653
561.8000	1.39824
561.7750	1.39815
561.7500	1.39797
561.7250	1.39699
561.7000	1.39602
561.6750	1.39622
561.6500	1.39527
561.6250	1.39448
561.6000	1.39593
561.5750	1.39756
561.5500	1.39619
561.5250	1.39618
561.5000	1.39314
561.4750	1.39176
561.4500	1.39381
561.4250	1.39372
561.4000	1.39217
561.3750	1.39124
561.3500	1.39264
561.3250	1.39021
561.3000	1.39248
561.2750	1.39226
561.2500	1.39181
561.2250	1.39103
561.2000	1.39049
561.1750	1.39398
561.1500	1.39273
561.1250	1.39219
561.1000	1.3921
561.0750	1.39241
561.0500	1.39147
561.0250	1.39107
561.0000	1.38968
560.9750	1.38985
560.9500	1.38919
560.9250	1.38805
560.9000	1.38852
560.8750	1.38893
560.8500	1.38815
560.8250	1.38861
560.8000	1.38953
560.7750	1.38852
560.7500	1.38966
560.7250	1.38587
560.7000	1.38779
560.6750	1.38417
560.6500	1.38405
560.6250	1.38394
560.6000	1.38431
560.5750	1.38564
560.5500	1.38451
560.5250	1.3838
560.5000	1.38454
560.4750	1.38359
560.4500	1.38434
560.4250	1.38288
560.4000	1.38463
560.3750	1.38719
560.3500	1.38544
560.3250	1.38645
560.3000	1.38153
560.2750	1.37867
560.2500	1.37733
560.2250	1.37576
560.2000	1.37784
560.1750	1.37743
560.1500	1.38079
560.1250	1.3823
560.1000	1.3856
560.0750	1.38773
560.0500	1.39034
560.0250	1.39151
560.0000	1.3939
559.9750	1.39687
559.9500	1.39538
559.9250	1.39312
559.9000	1.38854
559.8750	1.38834
559.8500	1.39105
559.8250	1.39197
559.8000	1.39257
559.7750	1.39548
559.7500	1.39514
559.7250	1.39851
559.7000	1.39635
559.6750	1.39308
559.6500	1.39321
559.6250	1.39233
559.6000	1.38695
559.5750	1.38719
559.5500	1.38046
559.5250	1.38018
559.5000	1.38046
559.4750	1.37902
559.4500	1.38091
559.4250	1.37942
559.4000	1.37905
559.3750	1.37769
559.3500	1.37519
559.3250	1.3751
559.3000	1.37477
559.2750	1.37412
559.2500	1.37639
559.2250	1.37494
559.2000	1.37395
559.1750	1.37654
559.1500	1.37501
559.1250	1.37323
559.1000	1.36936
559.0750	1.37203
559.0500	1.37376
559.0250	1.37603
559.0000	1.37843
558.9750	1.38402
558.9500	1.38605
558.9250	1.3879
558.9000	1.38945
558.8750	1.39223
558.8500	1.39113
558.8250	1.3907
558.8000	1.39483
558.7750	1.39194
558.7500	1.39149
558.7250	1.39134
558.7000	1.39448
558.6750	1.39378
558.6500	1.39375
558.6250	1.39414
558.6000	1.39708
558.5750	1.39743
558.5500	1.39342
558.5250	1.39131
558.5000	1.38751
558.4750	1.38664
558.4500	1.38557
558.4250	1.38566
558.4000	1.3867
558.3750	1.38615
558.3500	1.38711
558.3250	1.38715
558.3000	1.38741
558.2750	1.38608
558.2500	1.38805
558.2250	1.38745
558.2000	1.38884
558.1750	1.38883
558.1500	1.38658
558.1250	1.38475
558.1000	1.38497
558.0750	1.38112
558.0500	1.38133
558.0250	1.38199
558.0000	1.37773
557.9750	1.3785
557.9500	1.3775
557.9250	1.38
557.9000	1.38258
557.8750	1.3806
557.8500	1.38198
557.8250	1.3821
557.8000	1.37947
557.7750	1.37865
557.7500	1.37482
557.7250	1.37191
557.7000	1.37153
557.6750	1.37332
557.6500	1.3713
557.6250	1.3708
557.6000	1.36811
557.5750	1.36552
557.5500	1.36488
557.5250	1.36426
557.5000	1.36311
557.4750	1.36643
557.4500	1.36844
557.4250	1.37642
557.4000	1.37967
557.3750	1.38102
557.3500	1.38416
557.3250	1.38498
557.3000	1.38406
557.2750	1.38191
557.2500	1.38022
557.2250	1.38024
557.2000	1.38007
557.1750	1.37801
557.1500	1.37943
557.1250	1.37845
557.1000	1.37749
557.0750	1.37735
557.0500	1.37477
557.0250	1.37585
557.0000	1.37318
556.9750	1.36985
556.9500	1.37187
556.9250	1.3714
556.9000	1.3713
556.8750	1.37212
556.8500	1.3715
556.8250	1.37168
556.8000	1.37174
556.7750	1.36897
556.7500	1.36968
556.7250	1.3681
556.7000	1.36811
556.6750	1.36696
556.6500	1.36497
556.6250	1.36422
556.6000	1.36163
556.5750	1.36129
556.5500	1.36085
556.5250	1.3588
556.5000	1.35893
556.4750	1.35722
556.4500	1.35602
556.4250	1.35543
556.4000	1.35572
556.3750	1.35726
556.3500	1.35705
556.3250	1.35813
556.3000	1.35823
556.2750	1.35977
556.2500	1.36243
556.2250	1.36373
556.2000	1.36593
556.1750	1.37044
556.1500	1.37374
556.1250	1.37525
556.1000	1.37723
556.0750	1.37795
556.0500	1.37876
556.0250	1.37884
556.0000	1.37876
555.9750	1.37967
555.9500	1.37925
555.9250	1.37869
555.9000	1.37934
555.8750	1.37784
555.8500	1.37842
555.8250	1.37617
555.8000	1.37605
555.7750	1.37551
555.7500	1.37255
555.7250	1.37143
555.7000	1.37279
555.6750	1.37382
555.6500	1.37611
555.6250	1.37781
555.6000	1.38139
555.5750	1.38106
555.5500	1.38006
555.5250	1.37817
555.5000	1.37775
555.4750	1.3742
555.4500	1.3724
555.4250	1.37422
555.4000	1.37229
555.3750	1.37198
555.3500	1.37314
555.3250	1.37277
555.3000	1.37223
555.2750	1.37022
555.2500	1.36873
555.2250	1.36782
555.2000	1.36779
555.1750	1.3684
555.1500	1.36769
555.1250	1.36561
555.1000	1.3654
555.0750	1.36299
555.0500	1.36187
555.0250	1.35769
555.0000	1.35768
554.9750	1.35988
554.9500	1.35916
554.9250	1.35837
554.9000	1.36404
554.8750	1.36625
554.8500	1.36843
554.8250	1.37295
554.8000	1.37279
554.7750	1.37562
554.7500	1.37194
554.7250	1.36998
554.7000	1.37016
554.6750	1.36755
554.6500	1.3681
554.6250	1.36969
554.6000	1.37172
554.5750	1.37289
554.5500	1.37083
554.5250	1.37266
554.5000	1.36956
554.4750	1.36909
554.4500	1.3686
554.4250	1.36786
554.4000	1.36719
554.3750	1.36721
554.3500	1.36626
554.3250	1.36831
554.3000	1.36737
554.2750	1.36224
554.2500	1.36312
554.2250	1.36152
554.2000	1.36106
554.1750	1.35869
554.1500	1.35694
554.1250	1.35895
554.1000	1.35686
554.0750	1.3563
554.0500	1.35856
554.0250	1.35794
554.0000	1.35813
553.9750	1.35819
553.9500	1.35594
553.9250	1.35825
553.9000	1.36345
553.8750	1.36063
553.8500	1.36068
553.8250	1.35646
553.8000	1.35707
553.7750	1.35602
553.7500	1.35133
553.7250	1.34893
553.7000	1.34925
553.6750	1.34749
553.6500	1.34546
553.6250	1.34467
553.6000	1.34571
553.5750	1.34845
553.5500	1.35085
553.5250	1.35405
553.5000	1.36399
553.4750	1.37122
553.4500	1.37652
553.4250	1.38007
553.4000	1.38226
553.3750	1.3824
553.3500	1.38233
553.3250	1.37836
553.3000	1.37909
553.2750	1.37845
553.2500	1.37821
553.2250	1.37854
553.2000	1.37924
553.1750	1.37839
553.1500	1.37718
553.1250	1.37453
553.1000	1.37388
553.0750	1.37246
553.0500	1.36966
553.0250	1.36779
553.0000	1.36878
552.9750	1.37187
552.9500	1.37303
552.9250	1.37211
552.9000	1.37081
552.8750	1.36898
552.8500	1.36897
552.8250	1.37086
552.8000	1.36996
552.7750	1.36829
552.7500	1.3686
552.7250	1.37191
552.7000	1.36931
552.6750	1.36565
552.6500	1.36397
552.6250	1.36479
552.6000	1.36439
552.5750	1.36574
552.5500	1.36745
552.5250	1.3698
552.5000	1.37114
552.4750	1.36702
552.4500	1.36897
552.4250	1.36596
552.4000	1.36606
552.3750	1.36574
552.3500	1.367
552.3250	1.36765
552.3000	1.36645
552.2750	1.36677
552.2500	1.36979
552.2250	1.3692
552.2000	1.36738
552.1750	1.36833
552.1500	1.36935
552.1250	1.37037
552.1000	1.37011
552.0750	1.37068
552.0500	1.37406
552.0250	1.37391
552.0000	1.37478
551.9750	1.37443
551.9500	1.37439
551.9250	1.37439
551.9000	1.371
551.8750	1.36905
551.8500	1.36496
551.8250	1.36504
551.8000	1.36528
551.7750	1.36308
551.7500	1.36176
551.7250	1.36101
551.7000	1.3626
551.6750	1.36169
551.6500	1.36093
551.6250	1.36049
551.6000	1.35957
551.5750	1.3594
551.5500	1.35999
551.5250	1.36011
551.5000	1.36176
551.4750	1.36226
551.4500	1.3619
551.4250	1.36097
551.4000	1.36237
551.3750	1.36272
551.3500	1.35952
551.3250	1.35743
551.3000	1.3554
551.2750	1.35588
551.2500	1.35501
551.2250	1.35201
551.2000	1.35173
551.1750	1.35366
551.1500	1.35546
551.1250	1.35071
551.1000	1.34881
551.0750	1.3474
551.0500	1.34703
551.0250	1.34387
551.0000	1.33966
550.9750	1.33999
550.9500	1.3426
550.9250	1.34781
550.9000	1.35172
550.8750	1.35583
550.8500	1.36252
550.8250	1.36892
550.8000	1.37312
550.7750	1.37362
550.7500	1.37556
550.7250	1.37702
550.7000	1.37631
550.6750	1.37998
550.6500	1.3824
550.6250	1.3815
550.6000	1.38299
550.5750	1.38057
550.5500	1.3776
550.5250	1.37787
550.5000	1.37381
550.4750	1.37388
550.4500	1.36974
550.4250	1.37239
550.4000	1.3715
550.3750	1.37279
550.3500	1.37255
550.3250	1.37464
550.3000	1.37847
550.2750	1.37689
550.2500	1.37583
550.2250	1.37367
550.2000	1.37515
550.1750	1.37216
550.1500	1.36915
550.1250	1.3663
550.1000	1.3668
550.0750	1.3688
550.0500	1.36874
550.0250	1.37003
550.0000	1.37101
549.9750	1.3691
549.9500	1.36986
549.9250	1.37065
549.9000	1.37198
549.8750	1.37218
549.8500	1.3675
549.8250	1.37132
549.8000	1.37118
549.7750	1.37058
549.7500	1.36813
549.7250	1.36958
549.7000	1.3704
549.6750	1.36983
549.6500	1.36716
549.6250	1.36783
549.6000	1.36553
549.5750	1.36301
549.5500	1.36005
549.5250	1.36291
549.5000	1.35997
549.4750	1.35764
549.4500	1.35828
549.4250	1.36061
549.4000	1.36254
549.3750	1.36308
549.3500	1.36187
549.3250	1.36055
549.3000	1.35877
549.2750	1.35748
549.2500	1.3518
549.2250	1.35264
549.2000	1.35055
549.1750	1.35421
549.1500	1.35848
549.1250	1.35759
549.1000	1.35814
549.0750	1.35622
549.0500	1.35506
549.0250	1.35305
549.0000	1.3508
548.9750	1.35169
548.9500	1.35193
548.9250	1.35154
548.9000	1.35211
548.8750	1.35212
548.8500	1.35068
548.8250	1.34766
548.8000	1.34537
548.7750	1.34429
548.7500	1.34083
548.7250	1.34081
548.7000	1.3393
548.6750	1.33954
548.6500	1.33769
548.6250	1.3381
548.6000	1.33802
548.5750	1.34002
548.5500	1.33865
548.5250	1.33705
548.5000	1.33713
548.4750	1.33801
548.4500	1.33681
548.4250	1.33397
548.4000	1.33577
548.3750	1.33809
548.3500	1.34374
548.3250	1.34571
548.3000	1.34874
548.2750	1.34922
548.2500	1.35391
548.2250	1.35614
548.2000	1.35903
548.1750	1.36202
548.1500	1.36047
548.1250	1.36181
548.1000	1.36227
548.0750	1.36171
548.0500	1.36031
548.0250	1.36018
548.0000	1.35949
547.9750	1.35988
547.9500	1.35904
547.9250	1.3583
547.9000	1.36108
547.8750	1.35926
547.8500	1.3594
547.8250	1.35893
547.8000	1.36105
547.7750	1.35852
547.7500	1.35709
547.7250	1.35327
547.7000	1.35112
547.6750	1.35379
547.6500	1.35362
547.6250	1.35513
547.6000	1.35526
547.5750	1.35482
547.5500	1.35782
547.5250	1.35869
547.5000	1.35795
547.4750	1.35758
547.4500	1.35584
547.4250	1.35728
547.4000	1.35908
547.3750	1.35908
547.3500	1.35661
547.3250	1.35401
547.3000	1.35308
547.2750	1.35308
547.2500	1.35382
547.2250	1.35162
547.2000	1.3543
547.1750	1.35475
547.1500	1.35507
547.1250	1.35448
547.1000	1.35132
547.0750	1.35195
547.0500	1.35393
547.0250	1.35148
547.0000	1.34863
546.9750	1.35003
546.9500	1.34873
546.9250	1.35138
546.9000	1.34423
546.8750	1.34541
546.8500	1.34666
546.8250	1.34529
546.8000	1.34592
546.7750	1.34405
546.7500	1.34544
546.7250	1.3467
546.7000	1.34528
546.6750	1.34142
546.6500	1.34179
546.6250	1.34305
546.6000	1.34091
546.5750	1.33878
546.5500	1.33708
546.5250	1.34044
546.5000	1.33992
546.4750	1.33791
546.4500	1.33951
546.4250	1.33806
546.4000	1.33746
546.3750	1.33899
546.3500	1.337
546.3250	1.33604
546.3000	1.33754
546.2750	1.3348
546.2500	1.33307
546.2250	1.33493
546.2000	1.33284
546.1750	1.33402
546.1500	1.3292
546.1250	1.33179
546.1000	1.32849
546.0750	1.32521
546.0500	1.32237
546.0250	1.32166
546.0000	1.32253
545.9750	1.32082
545.9500	1.32024
545.9250	1.32438
545.9000	1.32897
545.8750	1.33637
545.8500	1.33986
545.8250	1.34603
545.8000	1.35093
545.7750	1.3543
545.7500	1.35465
545.7250	1.35312
545.7000	1.35507
545.6750	1.35483
545.6500	1.35307
545.6250	1.35275
545.6000	1.35396
545.5750	1.35387
545.5500	1.35115
545.5250	1.35343
545.5000	1.35479
545.4750	1.35604
545.4500	1.35411
545.4250	1.35401
545.4000	1.35266
545.3750	1.35078
545.3500	1.34821
545.3250	1.34435
545.3000	1.34723
545.2750	1.35054
545.2500	1.35206
545.2250	1.35151
545.2000	1.35538
545.1750	1.35724
545.1500	1.3588
545.1250	1.35708
545.1000	1.3549
545.0750	1.356
545.0500	1.35675
545.0250	1.35537
545.0000	1.35621
544.9750	1.35683
544.9500	1.35635
544.9250	1.35496
544.9000	1.3543
544.8750	1.35386
544.8500	1.35296
544.8250	1.35079
544.8000	1.35194
544.7750	1.35329
544.7500	1.35219
544.7250	1.35115
544.7000	1.35096
544.6750	1.35148
544.6500	1.352
544.6250	1.34817
544.6000	1.34755
544.5750	1.34689
544.5500	1.34392
544.5250	1.33956
544.5000	1.34032
544.4750	1.341
544.4500	1.34359
544.4250	1.34265
544.4000	1.34465
544.3750	1.34437
544.3500	1.3455
544.3250	1.34705
544.3000	1.34153
544.2750	1.34205
544.2500	1.34087
544.2250	1.34181
544.2000	1.34293
544.1750	1.34078
544.1500	1.34126
544.1250	1.3374
544.1000	1.33686
544.0750	1.33466
544.0500	1.33215
544.0250	1.33366
544.0000	1.33109
543.9750	1.3303
543.9500	1.33077
543.9250	1.33159
543.9000	1.33008
543.8750	1.32991
543.8500	1.32603
543.8250	1.32246
543.8000	1.31951
543.7750	1.31945
543.7500	1.31797
543.7250	1.31782
543.7000	1.31582
543.6750	1.31517
543.6500	1.31932
543.6250	1.32117
543.6000	1.32083
543.5750	1.32229
543.5500	1.3237
543.5250	1.32613
543.5000	1.3318
543.4750	1.33551
543.4500	1.34316
543.4250	1.34703
543.4000	1.35038
543.3750	1.35206
543.3500	1.35408
543.3250	1.3521
543.3000	1.34895
543.2750	1.35002
543.2500	1.35122
543.2250	1.34971
543.2000	1.35072
543.1750	1.35564
543.1500	1.3581
543.1250	1.35792
543.1000	1.35495
543.0750	1.35667
543.0500	1.35884
543.0250	1.358
543.0000	1.35844
542.9750	1.3545
542.9500	1.35668
542.9250	1.36058
542.9000	1.35932
542.8750	1.35829
542.8500	1.35667
542.8250	1.35818
542.8000	1.35479
542.7750	1.35448
542.7500	1.3514
542.7250	1.35403
542.7000	1.35345
542.6750	1.35363
542.6500	1.35265
542.6250	1.35217
542.6000	1.35489
542.5750	1.35341
542.5500	1.35014
542.5250	1.35261
542.5000	1.35221
542.4750	1.34967
542.4500	1.34775
542.4250	1.34709
542.4000	1.34748
542.3750	1.34849
542.3500	1.34741
542.3250	1.34582
542.3000	1.3459
542.2750	1.34731
542.2500	1.34684
542.2250	1.34349
542.2000	1.34074
542.1750	1.33969
542.1500	1.33894
542.1250	1.33631
542.1000	1.33549
542.0750	1.33478
542.0500	1.33747
542.0250	1.33951
542.0000	1.34075
541.9750	1.33793
541.9500	1.33923
541.9250	1.33917
541.9000	1.33587
541.8750	1.33321
541.8500	1.332
541.8250	1.33381
541.8000	1.3328
541.7750	1.32941
541.7500	1.32874
541.7250	1.32848
541.7000	1.32834
541.6750	1.32575
541.6500	1.32615
541.6250	1.32547
541.6000	1.32902
541.5750	1.32978
541.5500	1.32697
541.5250	1.32587
541.5000	1.32657
541.4750	1.32497
541.4500	1.32256
541.4250	1.3198
541.4000	1.32005
541.3750	1.32227
541.3500	1.32354
541.3250	1.32361
541.3000	1.32521
541.2750	1.32944
541.2500	1.33164
541.2250	1.3349
541.2000	1.33852
541.1750	1.34463
541.1500	1.35014
541.1250	1.35412
541.1000	1.3567
541.0750	1.35905
541.0500	1.35995
541.0250	1.35957
541.0000	1.35897
540.9750	1.35811
540.9500	1.35591
540.9250	1.35606
540.9000	1.35832
540.8750	1.35948
540.8500	1.35827
540.8250	1.35751
540.8000	1.35534
540.7750	1.35581
540.7500	1.35326
540.7250	1.34897
540.7000	1.35167
540.6750	1.35343
540.6500	1.35344
540.6250	1.35142
540.6000	1.35298
540.5750	1.35676
540.5500	1.3567
540.5250	1.3519
540.5000	1.35054
540.4750	1.35194
540.4500	1.35243
540.4250	1.34809
540.4000	1.34346
540.3750	1.34321
540.3500	1.34395
540.3250	1.3403
540.3000	1.3418
540.2750	1.33919
540.2500	1.33778
540.2250	1.3393
540.2000	1.33939
540.1750	1.34097
540.1500	1.34069
540.1250	1.34041
540.1000	1.34156
540.0750	1.34236
540.0500	1.3434
540.0250	1.33917
540.0000	1.33957
539.9750	1.33714
539.9500	1.33431
539.9250	1.33278
539.9000	1.32988
539.8750	1.33112
539.8500	1.33226
539.8250	1.3311
539.8000	1.33274
539.7750	1.33178
539.7500	1.33186
539.7250	1.32984
539.7000	1.32502
539.6750	1.32223
539.6500	1.32056
539.6250	1.31631
539.6000	1.31609
539.5750	1.31594
539.5500	1.31792
539.5250	1.31877
539.5000	1.31876
539.4750	1.3209
539.4500	1.3215
539.4250	1.32225
539.4000	1.32168
539.3750	1.31904
539.3500	1.31732
539.3250	1.31734
539.3000	1.31459
539.2750	1.31222
539.2500	1.31144
539.2250	1.31288
539.2000	1.31226
539.1750	1.31158
539.1500	1.31013
539.1250	1.31047
539.1000	1.31243
539.0750	1.31535
539.0500	1.31745
539.0250	1.32279
539.0000	1.32853
538.9750	1.33476
538.9500	1.33779
538.9250	1.34162
538.9000	1.34505
538.8750	1.34537
538.8500	1.34388
538.8250	1.34193
538.8000	1.34289
538.7750	1.34289
538.7500	1.34158
538.7250	1.33866
538.7000	1.33893
538.6750	1.3441
538.6500	1.34217
538.6250	1.34137
538.6000	1.34383
538.5750	1.34535
538.5500	1.34584
538.5250	1.34624
538.5000	1.34768
538.4750	1.34761
538.4500	1.34564
538.4250	1.34134
538.4000	1.34355
538.3750	1.34233
538.3500	1.34046
538.3250	1.33807
538.3000	1.33856
538.2750	1.33764
538.2500	1.33704
538.2250	1.3353
538.2000	1.33377
538.1750	1.33168
538.1500	1.32971
538.1250	1.32847
538.1000	1.32727
538.0750	1.32628
538.0500	1.32791
538.0250	1.32598
538.0000	1.32863
537.9750	1.32727
537.9500	1.3263
537.9250	1.32759
537.9000	1.3264
537.8750	1.3255
537.8500	1.32446
537.8250	1.33094
537.8000	1.32772
537.7750	1.32504
537.7500	1.32504
537.7250	1.32653
537.7000	1.32589
537.6750	1.32319
537.6500	1.32068
537.6250	1.32169
537.6000	1.32316
537.5750	1.3234
537.5500	1.3203
537.5250	1.31937
537.5000	1.32045
537.4750	1.32014
537.4500	1.31841
537.4250	1.31724
537.4000	1.31494
537.3750	1.31724
537.3500	1.31712
537.3250	1.31778
537.3000	1.31692
537.2750	1.31583
537.2500	1.31461
537.2250	1.31315
537.2000	1.31057
537.1750	1.30607
537.1500	1.30663
537.1250	1.30727
537.1000	1.30797
537.0750	1.30805
537.0500	1.3077
537.0250	1.31098
537.0000	1.31121
536.9750	1.31211
536.9500	1.31461
536.9250	1.31898
536.9000	1.32532
536.8750	1.33216
536.8500	1.33527
536.8250	1.3417
536.8000	1.34275
536.7750	1.34354
536.7500	1.34268
536.7250	1.34224
536.7000	1.34355
536.6750	1.34159
536.6500	1.34195
536.6250	1.34131
536.6000	1.34291
536.5750	1.34254
536.5500	1.34191
536.5250	1.34084
536.5000	1.34273
536.4750	1.34415
536.4500	1.34356
536.4250	1.3417
536.4000	1.34361
536.3750	1.3437
536.3500	1.34407
536.3250	1.34409
536.3000	1.34572
536.2750	1.34539
536.2500	1.34359
536.2250	1.3392
536.2000	1.33953
536.1750	1.33643
536.1500	1.33294
536.1250	1.33284
536.1000	1.32795
536.0750	1.3298
536.0500	1.33032
536.0250	1.33012
536.0000	1.33141
535.9750	1.33637
535.9500	1.33542
535.9250	1.33424
535.9000	1.33503
535.8750	1.33271
535.8500	1.33198
535.8250	1.32708
535.8000	1.32504
535.7750	1.32697
535.7500	1.32495
535.7250	1.32526
535.7000	1.32422
535.6750	1.32259
535.6500	1.32322
535.6250	1.32363
535.6000	1.32404
535.5750	1.32452
535.5500	1.3242
535.5250	1.32291
535.5000	1.32704
535.4750	1.32316
535.4500	1.3218
535.4250	1.32181
535.4000	1.32304
535.3750	1.3246
535.3500	1.32169
535.3250	1.31889
535.3000	1.32094
535.2750	1.31934
535.2500	1.31542
535.2250	1.31172
535.2000	1.31154
535.1750	1.31198
535.1500	1.31136
535.1250	1.3127
535.1000	1.31244
535.0750	1.31598
535.0500	1.31679
535.0250	1.31719
535.0000	1.31334
534.9750	1.31245
534.9500	1.31674
534.9250	1.31429
534.9000	1.31289
534.8750	1.31623
534.8500	1.31996
534.8250	1.32729
534.8000	1.32798
534.7750	1.33201
534.7500	1.33505
534.7250	1.33938
534.7000	1.33772
534.6750	1.33503
534.6500	1.33544
534.6250	1.33666
534.6000	1.33904
534.5750	1.33605
534.5500	1.33445
534.5250	1.33633
534.5000	1.33792
534.4750	1.33735
534.4500	1.33503
534.4250	1.33636
534.4000	1.33619
534.3750	1.33692
534.3500	1.33545
534.3250	1.33495
534.3000	1.33414
534.2750	1.33362
534.2500	1.33539
534.2250	1.33694
534.2000	1.33333
534.1750	1.33407
534.1500	1.33578
534.1250	1.33755
534.1000	1.33527
534.0750	1.33261
534.0500	1.33529
534.0250	1.33422
534.0000	1.33565
533.9750	1.3346
533.9500	1.33565
533.9250	1.33863
533.9000	1.33677
533.8750	1.33407
533.8500	1.33194
533.8250	1.32962
533.8000	1.32621
533.7750	1.32133
533.7500	1.31921
533.7250	1.31591
533.7000	1.31788
533.6750	1.32167
533.6500	1.32037
533.6250	1.32407
533.6000	1.32507
533.5750	1.32799
533.5500	1.32735
533.5250	1.32562
533.5000	1.32405
533.4750	1.32218
533.4500	1.31983
533.4250	1.32024
533.4000	1.31948
533.3750	1.31805
533.3500	1.31772
533.3250	1.31814
533.3000	1.31517
533.2750	1.3119
533.2500	1.30965
533.2250	1.30829
533.2000	1.3104
533.1750	1.31129
533.1500	1.31093
533.1250	1.31095
533.1000	1.31276
533.0750	1.31141
533.0500	1.3077
533.0250	1.30502
533.0000	1.30702
532.9750	1.30766
532.9500	1.31135
532.9250	1.31393
532.9000	1.32378
532.8750	1.32964
532.8500	1.33047
532.8250	1.33616
532.8000	1.33715
532.7750	1.34082
532.7500	1.33777
532.7250	1.33693
532.7000	1.34049
532.6750	1.33946
532.6500	1.33997
532.6250	1.33584
532.6000	1.33511
532.5750	1.33688
532.5500	1.3348
532.5250	1.3345
532.5000	1.33361
532.4750	1.33504
532.4500	1.33383
532.4250	1.33225
532.4000	1.33051
532.3750	1.32857
532.3500	1.33108
532.3250	1.32696
532.3000	1.32771
532.2750	1.32708
532.2500	1.32726
532.2250	1.3261
532.2000	1.32251
532.1750	1.32076
532.1500	1.31962
532.1250	1.32073
532.1000	1.32065
532.0750	1.3224
532.0500	1.32454
532.0250	1.32569
532.0000	1.32762
531.9750	1.32851
531.9500	1.32722
531.9250	1.32755
531.9000	1.32496
531.8750	1.32161
531.8500	1.31951
531.8250	1.31967
531.8000	1.31895
531.7750	1.31686
531.7500	1.31406
531.7250	1.31478
531.7000	1.31424
531.6750	1.31534
531.6500	1.3129
531.6250	1.30843
531.6000	1.31133
531.5750	1.31087
531.5500	1.31023
531.5250	1.30481
531.5000	1.30474
531.4750	1.30515
531.4500	1.30523
531.4250	1.30122
531.4000	1.2997
531.3750	1.29996
531.3500	1.29935
531.3250	1.30076
531.3000	1.30045
531.2750	1.30135
531.2500	1.30524
531.2250	1.30484
531.2000	1.30545
531.1750	1.30529
531.1500	1.30289
531.1250	1.3031
531.1000	1.30401
531.0750	1.30606
531.0500	1.30888
531.0250	1.31244
531.0000	1.31799
530.9750	1.32443
530.9500	1.32805
530.9250	1.33341
530.9000	1.33231
530.8750	1.3334
530.8500	1.33344
530.8250	1.33219
530.8000	1.33327
530.7750	1.33352
530.7500	1.33097
530.7250	1.33123
530.7000	1.33118
530.6750	1.33142
530.6500	1.33021
530.6250	1.33081
530.6000	1.3298
530.5750	1.32894
530.5500	1.32821
530.5250	1.32521
530.5000	1.32138
530.4750	1.31912
530.4500	1.32019
530.4250	1.31635
530.4000	1.31683
530.3750	1.31641
530.3500	1.3159
530.3250	1.31481
530.3000	1.31397
530.2750	1.31062
530.2500	1.31101
530.2250	1.31128
530.2000	1.3119
530.1750	1.3137
530.1500	1.31632
530.1250	1.31628
530.1000	1.31528
530.0750	1.31299
530.0500	1.31138
530.0250	1.30988
530.0000	1.30731
529.9750	1.30795
529.9500	1.30661
529.9250	1.30699
529.9000	1.30654
529.8750	1.30682
529.8500	1.30468
529.8250	1.30423
529.8000	1.30494
529.7750	1.30586
529.7500	1.30654
529.7250	1.306
529.7000	1.30567
529.6750	1.30535
529.6500	1.30538
529.6250	1.30551
529.6000	1.30125
529.5750	1.30083
529.5500	1.30105
529.5250	1.2997
529.5000	1.29797
529.4750	1.29637
529.4500	1.29729
529.4250	1.29673
529.4000	1.29741
529.3750	1.29631
529.3500	1.29541
529.3250	1.29441
529.3000	1.29288
529.2750	1.29544
529.2500	1.29692
529.2250	1.30133
529.2000	1.30639
529.1750	1.31193
529.1500	1.31704
529.1250	1.32076
529.1000	1.32145
529.0750	1.32224
529.0500	1.32514
529.0250	1.32371
529.0000	1.32478
528.9750	1.32457
528.9500	1.32321
528.9250	1.32305
528.9000	1.32309
528.8750	1.3206
528.8500	1.32067
528.8250	1.31967
528.8000	1.32172
528.7750	1.32157
528.7500	1.32112
528.7250	1.31781
528.7000	1.31822
528.6750	1.31679
528.6500	1.31603
528.6250	1.31628
528.6000	1.31618
528.5750	1.31745
528.5500	1.31844
528.5250	1.31846
528.5000	1.31639
528.4750	1.31505
528.4500	1.31714
528.4250	1.3149
528.4000	1.31478
528.3750	1.31445
528.3500	1.31386
528.3250	1.31344
528.3000	1.31353
528.2750	1.3104
528.2500	1.31277
528.2250	1.31253
528.2000	1.31222
528.1750	1.31502
528.1500	1.30964
528.1250	1.31024
528.1000	1.30896
528.0750	1.30418
528.0500	1.30333
528.0250	1.303
528.0000	1.30399
527.9750	1.30654
527.9500	1.30578
527.9250	1.30661
527.9000	1.30566
527.8750	1.30647
527.8500	1.30508
527.8250	1.30566
527.8000	1.30241
527.7750	1.30178
527.7500	1.30205
527.7250	1.30178
527.7000	1.30301
527.6750	1.29938
527.6500	1.29781
527.6250	1.30075
527.6000	1.29945
527.5750	1.30249
527.5500	1.29898
527.5250	1.3015
527.5000	1.29879
527.4750	1.302
527.4500	1.30584
527.4250	1.3114
527.4000	1.31548
527.3750	1.31814
527.3500	1.3253
527.3250	1.32568
527.3000	1.32899
527.2750	1.32735
527.2500	1.32609
527.2250	1.32642
527.2000	1.32611
527.1750	1.32706
527.1500	1.32324
527.1250	1.3227
527.1000	1.32344
527.0750	1.32294
527.0500	1.32135
527.0250	1.31993
527.0000	1.32146
526.9750	1.32125
526.9500	1.32164
526.9250	1.32062
526.9000	1.32229
526.8750	1.32085
526.8500	1.31982
526.8250	1.31874
526.8000	1.32102
526.7750	1.31924
526.7500	1.31916
526.7250	1.31678
526.7000	1.31551
526.6750	1.31448
526.6500	1.31353
526.6250	1.30901
526.6000	1.31163
526.5750	1.31262
526.5500	1.31105
526.5250	1.31155
526.5000	1.31108
526.4750	1.31137
526.4500	1.30962
526.4250	1.30895
526.4000	1.30892
526.3750	1.30469
526.3500	1.30626
526.3250	1.308
526.3000	1.30831
526.2750	1.30987
526.2500	1.30852
526.2250	1.3093
526.2000	1.30777
526.1750	1.30494
526.1500	1.30688
526.1250	1.30252
526.1000	1.30231
526.0750	1.30224
526.0500	1.30208
526.0250	1.30303
526.0000	1.30291
525.9750	1.30044
525.9500	1.30349
525.9250	1.30362
525.9000	1.30137
525.8750	1.30111
525.8500	1.30346
525.8250	1.30643
525.8000	1.30985
525.7750	1.31224
525.7500	1.31547
525.7250	1.32078
525.7000	1.3231
525.6750	1.32615
525.6500	1.32516
525.6250	1.32641
525.6000	1.32398
525.5750	1.32152
525.5500	1.32392
525.5250	1.32061
525.5000	1.32276
525.4750	1.32064
525.4500	1.31952
525.4250	1.3183
525.4000	1.31594
525.3750	1.31603
525.3500	1.31389
525.3250	1.31305
525.3000	1.31138
525.2750	1.31213
525.2500	1.31243
525.2250	1.3137
525.2000	1.31284
525.1750	1.31226
525.1500	1.31542
525.1250	1.31537
525.1000	1.31789
525.0750	1.31804
525.0500	1.3166
525.0250	1.31365
525.0000	1.31246
524.9750	1.31164
524.9500	1.30754
524.9250	1.30562
524.9000	1.30633
524.8750	1.30939
524.8500	1.30849
524.8250	1.30559
524.8000	1.30756
524.7750	1.30426
524.7500	1.30402
524.7250	1.2998
524.7000	1.29873
524.6750	1.29676
524.6500	1.29709
524.6250	1.29635
524.6000	1.29619
524.5750	1.29886
524.5500	1.29874
524.5250	1.30005
524.5000	1.30121
524.4750	1.30278
524.4500	1.30118
524.4250	1.29735
524.4000	1.29915
524.3750	1.29849
524.3500	1.29645
524.3250	1.29417
524.3000	1.29436
524.2750	1.29123
524.2500	1.29197
524.2250	1.2932
524.2000	1.29593
524.1750	1.29929
524.1500	1.30467
524.1250	1.30641
524.1000	1.31257
524.0750	1.31264
524.0500	1.31789
524.0250	1.31934
524.0000	1.31921
523.9750	1.3196
523.9500	1.31993
523.9250	1.31891
523.9000	1.31554
523.8750	1.30885
523.8500	1.30876
523.8250	1.30591
523.8000	1.30491
523.7750	1.30619
523.7500	1.30751
523.7250	1.30964
523.7000	1.3118
523.6750	1.31319
523.6500	1.31252
523.6250	1.30867
523.6000	1.3086
523.5750	1.30787
523.5500	1.30794
523.5250	1.30758
523.5000	1.30813
523.4750	1.30952
523.4500	1.30768
523.4250	1.30467
523.4000	1.30203
523.3750	1.30098
523.3500	1.30067
523.3250	1.2983
523.3000	1.2981
523.2750	1.29745
523.2500	1.29638
523.2250	1.29307
523.2000	1.29188
523.1750	1.29091
523.1500	1.29102
523.1250	1.28842
523.1000	1.29029
523.0750	1.29361
523.0500	1.2941
523.0250	1.2914
523.0000	1.2926
522.9750	1.29775
522.9500	1.29563
522.9250	1.29424
522.9000	1.2966
522.8750	1.29577
522.8500	1.29404
522.8250	1.29349
522.8000	1.29223
522.7750	1.29232
522.7500	1.2919
522.7250	1.28993
522.7000	1.2929
522.6750	1.29066
522.6500	1.29187
522.6250	1.29276
522.6000	1.29556
522.5750	1.29932
522.5500	1.30203
522.5250	1.30188
522.5000	1.30341
522.4750	1.30521
522.4500	1.30779
522.4250	1.30766
522.4000	1.30486
522.3750	1.30608
522.3500	1.30859
522.3250	1.30726
522.3000	1.30707
522.2750	1.30552
522.2500	1.30544
522.2250	1.3077
522.2000	1.30713
522.1750	1.3032
522.1500	1.30144
522.1250	1.30199
522.1000	1.30127
522.0750	1.29968
522.0500	1.29847
522.0250	1.30399
522.0000	1.30363
521.9750	1.30119
521.9500	1.30128
521.9250	1.29884
521.9000	1.29764
521.8750	1.2982
521.8500	1.29488
521.8250	1.29404
521.8000	1.29156
521.7750	1.29235
521.7500	1.29066
521.7250	1.29047
521.7000	1.29261
521.6750	1.29538
521.6500	1.29657
521.6250	1.295
521.6000	1.29317
521.5750	1.29337
521.5500	1.29271
521.5250	1.29147
521.5000	1.2936
521.4750	1.29452
521.4500	1.29222
521.4250	1.29234
521.4000	1.29217
521.3750	1.29125
521.3500	1.28638
521.3250	1.28351
521.3000	1.28395
521.2750	1.28685
521.2500	1.28362
521.2250	1.28144
521.2000	1.28528
521.1750	1.28833
521.1500	1.29089
521.1250	1.29414
521.1000	1.29513
521.0750	1.29903
521.0500	1.30259
521.0250	1.30069
521.0000	1.30311
520.9750	1.30347
520.9500	1.30228
520.9250	1.30316
520.9000	1.30139
520.8750	1.30169
520.8500	1.29898
520.8250	1.29919
520.8000	1.29712
520.7750	1.29728
520.7500	1.29976
520.7250	1.30107
520.7000	1.3023
520.6750	1.30372
520.6500	1.30513
520.6250	1.3053
520.6000	1.30338
520.5750	1.3029
520.5500	1.3002
520.5250	1.30009
520.5000	1.3007
520.4750	1.29982
520.4500	1.30113
520.4250	1.29978
520.4000	1.29779
520.3750	1.29724
520.3500	1.2964
520.3250	1.29581
520.3000	1.2926
520.2750	1.29556
520.2500	1.29667
520.2250	1.29841
520.2000	1.29699
520.1750	1.29817
520.1500	1.29881
520.1250	1.30101
520.1000	1.30087
520.0750	1.29952
520.0500	1.29633
520.0250	1.29485
520.0000	1.29291
519.9750	1.29298
519.9500	1.29118
519.9250	1.2887
519.9000	1.28911
519.8750	1.2883
519.8500	1.28997
519.8250	1.28873
519.8000	1.28892
519.7750	1.29296
519.7500	1.29406
519.7250	1.29858
519.7000	1.30203
519.6750	1.30521
519.6500	1.3089
519.6250	1.30917
519.6000	1.31147
519.5750	1.31181
519.5500	1.31364
519.5250	1.31194
519.5000	1.30946
519.4750	1.31139
519.4500	1.31115
519.4250	1.30986
519.4000	1.30698
519.3750	1.30786
519.3500	1.30888
519.3250	1.30878
519.3000	1.30956
519.2750	1.30533
519.2500	1.30557
519.2250	1.30565
519.2000	1.30519
519.1750	1.30487
519.1500	1.30176
519.1250	1.30052
519.1000	1.30032
519.0750	1.30049
519.0500	1.29832
519.0250	1.30114
519.0000	1.29897
518.9750	1.30046
518.9500	1.2994
518.9250	1.29523
518.9000	1.29462
518.8750	1.29715
518.8500	1.29649
518.8250	1.29684
518.8000	1.29869
518.7750	1.29806
518.7500	1.2997
518.7250	1.29705
518.7000	1.30125
518.6750	1.30094
518.6500	1.30121
518.6250	1.30136
518.6000	1.30137
518.5750	1.30092
518.5500	1.29493
518.5250	1.29245
518.5000	1.28996
518.4750	1.291
518.4500	1.29019
518.4250	1.29495
518.4000	1.29972
518.3750	1.30303
518.3500	1.30539
518.3250	1.30822
518.3000	1.3132
518.2750	1.31409
518.2500	1.31238
518.2250	1.31422
518.2000	1.31573
518.1750	1.31308
518.1500	1.31029
518.1250	1.31033
518.1000	1.30781
518.0750	1.30463
518.0500	1.30265
518.0250	1.30417
518.0000	1.30513
517.9750	1.3035
517.9500	1.30352
517.9250	1.30634
517.9000	1.30388
517.8750	1.30446
517.8500	1.30391
517.8250	1.30349
517.8000	1.30248
517.7750	1.2977
517.7500	1.29839
517.7250	1.29878
517.7000	1.29828
517.6750	1.29822
517.6500	1.29559
517.6250	1.29848
517.6000	1.29628
517.5750	1.2954
517.5500	1.2943
517.5250	1.29062
517.5000	1.29263
517.4750	1.29332
517.4500	1.29474
517.4250	1.29438
517.4000	1.29305
517.3750	1.29504
517.3500	1.2957
517.3250	1.29348
517.3000	1.29087
517.2750	1.29128
517.2500	1.29121
517.2250	1.29176
517.2000	1.28801
517.1750	1.2866
517.1500	1.28817
517.1250	1.28874
517.1000	1.28826
517.0750	1.291
517.0500	1.29349
517.0250	1.29787
517.0000	1.30218
516.9750	1.30486
516.9500	1.30827
516.9250	1.30864
516.9000	1.30945
516.8750	1.31026
516.8500	1.30962
516.8250	1.30839
516.8000	1.30138
516.7750	1.29996
516.7500	1.29693
516.7250	1.2953
516.7000	1.29325
516.6750	1.29379
516.6500	1.29505
516.6250	1.29751
516.6000	1.2977
516.5750	1.29891
516.5500	1.29755
516.5250	1.29612
516.5000	1.29285
516.4750	1.29037
516.4500	1.29168
516.4250	1.29539
516.4000	1.29515
516.3750	1.29296
516.3500	1.29466
516.3250	1.2933
516.3000	1.29157
516.2750	1.2866
516.2500	1.28362
516.2250	1.28605
516.2000	1.28961
516.1750	1.28793
516.1500	1.28718
516.1250	1.28944
516.1000	1.28994
516.0750	1.29113
516.0500	1.2863
516.0250	1.28369
516.0000	1.28213
515.9750	1.28147
515.9500	1.28
515.9250	1.27895
515.9000	1.27978
515.8750	1.28488
515.8500	1.28799
515.8250	1.29157
515.8000	1.29429
515.7750	1.29797
515.7500	1.29867
515.7250	1.30164
515.7000	1.30015
515.6750	1.29918
515.6500	1.29952
515.6250	1.29955
515.6000	1.29772
515.5750	1.29258
515.5500	1.29028
515.5250	1.29261
515.5000	1.29274
515.4750	1.29099
515.4500	1.29172
515.4250	1.29439
515.4000	1.29549
515.3750	1.29225
515.3500	1.28763
515.3250	1.28515
515.3000	1.28636
515.2750	1.28493
515.2500	1.28333
515.2250	1.28427
515.2000	1.28807
515.1750	1.28557
515.1500	1.28385
515.1250	1.28537
515.1000	1.2847
515.0750	1.28521
515.0500	1.28418
515.0250	1.28417
515.0000	1.28596
514.9750	1.28557
514.9500	1.28035
514.9250	1.2798
514.9000	1.27944
514.8750	1.27771
514.8500	1.27998
514.8250	1.27732
514.8000	1.27811
514.7750	1.27582
514.7500	1.27803
514.7250	1.27785
514.7000	1.27766
514.6750	1.28021
514.6500	1.28319
514.6250	1.28563
514.6000	1.28372
514.5750	1.28673
514.5500	1.28818
514.5250	1.29107
514.5000	1.29141
514.4750	1.29492
514.4500	1.297
514.4250	1.29712
514.4000	1.29617
514.3750	1.29663
514.3500	1.29651
514.3250	1.29539
514.3000	1.29583
514.2750	1.29329
514.2500	1.29096
514.2250	1.29204
514.2000	1.29084
514.1750	1.28951
514.1500	1.28529
514.1250	1.28644
514.1000	1.28804
514.0750	1.28756
514.0500	1.2864
514.0250	1.2869
514.0000	1.28789
513.9750	1.28824
513.9500	1.28412
513.9250	1.28448
513.9000	1.2842
513.8750	1.28639
513.8500	1.28622
513.8250	1.28615
513.8000	1.28285
513.7750	1.28282
513.7500	1.28034
513.7250	1.27881
513.7000	1.27599
513.6750	1.27357
513.6500	1.27609
513.6250	1.27809
513.6000	1.28123
513.5750	1.28295
513.5500	1.2865
513.5250	1.28563
513.5000	1.28788
513.4750	1.28951
513.4500	1.2873
513.4250	1.28571
513.4000	1.28877
513.3750	1.2883
513.3500	1.28603
513.3250	1.28439
513.3000	1.28253
513.2750	1.28516
513.2500	1.28498
513.2250	1.28382
513.2000	1.29054
513.1750	1.29241
513.1500	1.29478
513.1250	1.29393
513.1000	1.29053
513.0750	1.29065
513.0500	1.28883
513.0250	1.28997
513.0000	1.29184
512.9750	1.29403
512.9500	1.28847
512.9250	1.29074
512.9000	1.29007
512.8750	1.28537
512.8500	1.2845
512.8250	1.28097
512.8000	1.27865
512.7750	1.28096
512.7500	1.27761
512.7250	1.27687
512.7000	1.27798
512.6750	1.27904
512.6500	1.28287
512.6250	1.28203
512.6000	1.28345
512.5750	1.28484
512.5500	1.2817
512.5250	1.28316
512.5000	1.28312
512.4750	1.28682
512.4500	1.28854
512.4250	1.29117
512.4000	1.29319
512.3750	1.29173
512.3500	1.29503
512.3250	1.29184
512.3000	1.28953
512.2750	1.28823
512.2500	1.28628
512.2250	1.29066
512.2000	1.28911
512.1750	1.28753
512.1500	1.28924
512.1250	1.29196
512.1000	1.2926
512.0750	1.29121
512.0500	1.29162
512.0250	1.2945
512.0000	1.29516
511.9750	1.29329
511.9500	1.29253
511.9250	1.29359
511.9000	1.29366
511.8750	1.2903
511.8500	1.28779
511.8250	1.28537
511.8000	1.28622
511.7750	1.28488
511.7500	1.28298
511.7250	1.28396
511.7000	1.28405
511.6750	1.2862
511.6500	1.28585
511.6250	1.28187
511.6000	1.28367
511.5750	1.28283
511.5500	1.28323
511.5250	1.28405
511.5000	1.28361
511.4750	1.2855
511.4500	1.28824
511.4250	1.28931
511.4000	1.28831
511.3750	1.28716
511.3500	1.289
511.3250	1.29168
511.3000	1.29311
511.2750	1.29411
511.2500	1.29558
511.2250	1.29535
511.2000	1.29866
511.1750	1.29856
511.1500	1.29497
511.1250	1.29376
511.1000	1.29455
511.0750	1.29283
511.0500	1.29196
511.0250	1.28767
511.0000	1.29166
510.9750	1.29075
510.9500	1.28787
510.9250	1.28706
510.9000	1.28685
510.8750	1.28654
510.8500	1.28495
510.8250	1.28395
510.8000	1.28987
510.7750	1.28826
510.7500	1.29244
510.7250	1.29249
510.7000	1.29058
510.6750	1.29074
510.6500	1.29167
510.6250	1.29306
510.6000	1.29241
510.5750	1.29135
510.5500	1.2918
510.5250	1.29297
510.5000	1.29172
510.4750	1.29019
510.4500	1.29287
510.4250	1.29302
510.4000	1.29484
510.3750	1.29438
510.3500	1.29491
510.3250	1.29255
510.3000	1.29418
510.2750	1.2936
510.2500	1.29204
510.2250	1.29125
510.2000	1.29015
510.1750	1.29203
510.1500	1.29029
510.1250	1.2903
510.1000	1.28932
510.0750	1.29057
510.0500	1.29029
510.0250	1.28945
510.0000	1.28771
509.9750	1.28827
509.9500	1.2882
509.9250	1.28828
509.9000	1.28822
509.8750	1.28619
509.8500	1.28452
509.8250	1.28124
509.8000	1.28317
509.7750	1.28064
509.7500	1.28025
509.7250	1.28269
509.7000	1.28545
509.6750	1.28698
509.6500	1.28781
509.6250	1.28703
509.6000	1.28527
509.5750	1.2866
509.5500	1.28687
509.5250	1.2876
509.5000	1.29053
509.4750	1.28953
509.4500	1.29237
509.4250	1.29243
509.4000	1.29311
509.3750	1.29074
509.3500	1.29067
509.3250	1.28965
509.3000	1.28914
509.2750	1.28975
509.2500	1.29024
509.2250	1.28864
509.2000	1.28525
509.1750	1.28549
509.1500	1.28519
509.1250	1.28402
509.1000	1.28241
509.0750	1.28303
509.0500	1.28203
509.0250	1.2825
509.0000	1.28183
508.9750	1.28083
508.9500	1.28408
508.9250	1.28296
508.9000	1.28431
508.8750	1.2833
508.8500	1.28357
508.8250	1.28555
508.8000	1.28589
508.7750	1.28564
508.7500	1.28766
508.7250	1.28507
508.7000	1.28676
508.6750	1.28638
508.6500	1.28402
508.6250	1.28539
508.6000	1.28643
508.5750	1.28581
508.5500	1.28585
508.5250	1.28703
508.5000	1.28756
508.4750	1.28751
508.4500	1.28436
508.4250	1.28171
508.4000	1.28099
508.3750	1.28006
508.3500	1.2803
508.3250	1.27933
508.3000	1.28034
508.2750	1.28176
508.2500	1.28269
508.2250	1.28188
508.2000	1.27998
508.1750	1.27908
508.1500	1.28062
508.1250	1.27803
508.1000	1.27801
508.0750	1.27868
508.0500	1.27848
508.0250	1.28125
508.0000	1.28392
507.9750	1.28573
507.9500	1.28897
507.9250	1.28963
507.9000	1.29185
507.8750	1.29191
507.8500	1.29073
507.8250	1.28836
507.8000	1.28731
507.7750	1.28447
507.7500	1.28365
507.7250	1.28247
507.7000	1.28117
507.6750	1.27939
507.6500	1.28107
507.6250	1.28096
507.6000	1.27922
507.5750	1.28185
507.5500	1.28197
507.5250	1.27867
507.5000	1.27686
507.4750	1.27698
507.4500	1.27778
507.4250	1.27695
507.4000	1.27545
507.3750	1.27757
507.3500	1.27769
507.3250	1.27818
507.3000	1.27906
507.2750	1.27863
507.2500	1.27865
507.2250	1.27811
507.2000	1.2793
507.1750	1.2811
507.1500	1.28282
507.1250	1.28343
507.1000	1.28402
507.0750	1.28533
507.0500	1.28603
507.0250	1.28264
507.0000	1.27901
506.9750	1.28105
506.9500	1.2783
506.9250	1.27533
506.9000	1.27367
506.8750	1.27441
506.8500	1.27534
506.8250	1.27559
506.8000	1.27428
506.7750	1.27649
506.7500	1.27839
506.7250	1.27671
506.7000	1.27898
506.6750	1.28084
506.6500	1.28278
506.6250	1.28421
506.6000	1.28504
506.5750	1.28619
506.5500	1.28754
506.5250	1.28464
506.5000	1.28208
506.4750	1.27994
506.4500	1.28088
506.4250	1.28104
506.4000	1.28185
506.3750	1.28013
506.3500	1.28115
506.3250	1.28192
506.3000	1.28176
506.2750	1.28282
506.2500	1.28195
506.2250	1.28294
506.2000	1.28282
506.1750	1.28372
506.1500	1.28367
506.1250	1.28211
506.1000	1.28168
506.0750	1.27943
506.0500	1.27958
506.0250	1.27923
506.0000	1.27787
505.9750	1.27701
505.9500	1.27723
505.9250	1.27667
505.9000	1.27308
505.8750	1.27382
505.8500	1.27579
505.8250	1.27551
505.8000	1.27751
505.7750	1.27898
505.7500	1.28376
505.7250	1.28701
505.7000	1.28725
505.6750	1.28935
505.6500	1.28999
505.6250	1.29158
505.6000	1.28907
505.5750	1.28966
505.5500	1.2886
505.5250	1.28666
505.5000	1.28675
505.4750	1.28461
505.4500	1.28497
505.4250	1.28312
505.4000	1.28204
505.3750	1.28177
505.3500	1.2819
505.3250	1.27912
505.3000	1.28058
505.2750	1.28044
505.2500	1.28111
505.2250	1.27828
505.2000	1.27993
505.1750	1.28441
505.1500	1.28276
505.1250	1.28048
505.1000	1.27909
505.0750	1.28214
505.0500	1.28012
505.0250	1.27945
505.0000	1.27996
504.9750	1.28124
504.9500	1.28416
504.9250	1.28345
504.9000	1.28234
504.8750	1.28277
504.8500	1.28145
504.8250	1.28098
504.8000	1.28517
504.7750	1.28538
504.7500	1.28642
504.7250	1.28922
504.7000	1.28963
504.6750	1.28958
504.6500	1.28623
504.6250	1.28491
504.6000	1.28423
504.5750	1.28333
504.5500	1.2831
504.5250	1.28342
504.5000	1.28307
504.4750	1.28525
504.4500	1.28654
504.4250	1.28932
504.4000	1.28893
504.3750	1.29065
504.3500	1.29108
504.3250	1.29283
504.3000	1.28862
504.2750	1.28835
504.2500	1.28739
504.2250	1.28262
504.2000	1.28251
504.1750	1.28168
504.1500	1.28233
504.1250	1.28123
504.1000	1.27905
504.0750	1.28068
504.0500	1.28027
504.0250	1.28009
504.0000	1.27964
503.9750	1.28037
503.9500	1.28184
503.9250	1.28399
503.9000	1.28458
503.8750	1.28567
503.8500	1.28356
503.8250	1.28715
503.8000	1.2883
503.7750	1.2898
503.7500	1.28688
503.7250	1.28774
503.7000	1.29097
503.6750	1.29112
503.6500	1.28695
503.6250	1.28391
503.6000	1.28407
503.5750	1.28403
503.5500	1.27826
503.5250	1.27734
503.5000	1.27786
503.4750	1.27942
503.4500	1.28018
503.4250	1.28414
503.4000	1.285
503.3750	1.28512
503.3500	1.28432
503.3250	1.28517
503.3000	1.2841
503.2750	1.28227
503.2500	1.28298
503.2250	1.27903
503.2000	1.27933
503.1750	1.28137
503.1500	1.28164
503.1250	1.2834
503.1000	1.28093
503.0750	1.28397
503.0500	1.28662
503.0250	1.28805
503.0000	1.28769
502.9750	1.28626
502.9500	1.28562
502.9250	1.28544
502.9000	1.28645
502.8750	1.28522
502.8500	1.28267
502.8250	1.28322
502.8000	1.28429
502.7750	1.28361
502.7500	1.2823
502.7250	1.28281
502.7000	1.28357
502.6750	1.28135
502.6500	1.28326
502.6250	1.28536
502.6000	1.28704
502.5750	1.28804
502.5500	1.28783
502.5250	1.28695
502.5000	1.28696
502.4750	1.28509
502.4500	1.28262
502.4250	1.28044
502.4000	1.28163
502.3750	1.27757
502.3500	1.27938
502.3250	1.27981
502.3000	1.28054
502.2750	1.27971
502.2500	1.2804
502.2250	1.28103
502.2000	1.28264
502.1750	1.2825
502.1500	1.28134
502.1250	1.28046
502.1000	1.28205
502.0750	1.28153
502.0500	1.28292
502.0250	1.28193
502.0000	1.28037
501.9750	1.28342
501.9500	1.27589
501.9250	1.27564
501.9000	1.27571
501.8750	1.27743
501.8500	1.27943
501.8250	1.2795
501.8000	1.27452
501.7750	1.27743
501.7500	1.28025
501.7250	1.28141
501.7000	1.28132
501.6750	1.27965
501.6500	1.28497
501.6250	1.28389
501.6000	1.28198
501.5750	1.28
501.5500	1.28044
501.5250	1.27995
501.5000	1.27579
501.4750	1.27745
501.4500	1.28206
501.4250	1.28464
501.4000	1.28466
501.3750	1.28316
501.3500	1.28269
501.3250	1.28202
501.3000	1.27833
501.2750	1.27646
501.2500	1.27327
501.2250	1.27467
501.2000	1.27507
501.1750	1.27561
501.1500	1.27467
501.1250	1.27364
501.1000	1.27486
501.0750	1.27646
501.0500	1.27561
501.0250	1.27654
501.0000	1.27875
500.9750	1.28111
500.9500	1.2806
500.9250	1.27811
500.9000	1.28104
500.8750	1.28074
500.8500	1.27727
500.8250	1.27529
500.8000	1.27347
500.7750	1.27194
500.7500	1.26971
500.7250	1.26864
500.7000	1.27206
500.6750	1.27042
500.6500	1.26902
500.6250	1.27143
500.6000	1.27204
500.5750	1.2691
500.5500	1.27132
500.5250	1.27226
500.5000	1.27356
500.4750	1.27628
500.4500	1.27831
500.4250	1.27802
500.4000	1.28062
500.3750	1.27882
500.3500	1.27939
500.3250	1.27376
500.3000	1.27252
500.2750	1.27021
500.2500	1.27157
500.2250	1.27066
500.2000	1.26894
500.1750	1.26974
500.1500	1.27136
500.1250	1.27289
500.1000	1.27193
500.0750	1.27115
500.0500	1.27075
500.0250	1.2742
500.0000	1.27134

##### Extended Information
[Comments]
Sample name
Comment
User
Division
Company	FU Berlin

[Detailed Information]
Creation date	04.06.2018 12:16

Data array type	Linear data array
Horizontal axis	Wavelength [nm]
Vertical axis	%T
Start	650 nm
End	500 nm
Data interval	0.025 nm
Data points	6001    

[Measurement Information]
Instrument name	JASCO-V750
Model name	V-750
Serial No.	A007961799

Measurement date	04.06.2018 11:45

Photometric mode	%T
Measurement range	650 - 500 nm
Data interval	0.025 nm
Bandwidth	0.1 nm
Response	0.96 sec
Scan speed	10 nm/min
Change source at	340 nm
Light source	D2/WI
Filter exchange	Step
Correction	None
No. of cycles	4
Cycle interval	0 sec
Cycle No.	4

